time,ecg,respiration
0,0.0142842252354056,474.083298725612
0.00390625,0.0103101586944687,474.083521223304
0.0078125,0.00846212048049096,474.083380031483
0.01171875,0.00937145558171103,474.082223511434
0.015625,0.0122989913630957,474.082364256001
0.01953125,0.0155459124714881,474.08366499152
0.0234375,0.0174357903996464,474.083098803943
0.02734375,0.0180518495289479,474.081382296487
0.03125,0.0191723115943664,474.078777167
0.03515625,0.0219430632684484,474.077895954087
0.0390625,0.0253559644374705,474.083302597921
0.04296875,0.027555876195284,474.080349172242
0.046875,0.0278814344995568,474.085754709312
0.05078125,0.0271068467967909,474.079413043868
0.0546875,0.0265071900229849,474.082005578567
0.05859375,0.0269504464959035,474.08086231339
0.0625,0.0284210056502794,474.080278639836
0.06640625,0.0297194583996151,474.080131569895
0.0703125,0.0290314340495823,474.080916082527
0.07421875,0.026132492040626,474.08157379262
0.078125,0.0227616094456956,474.081291102835
0.08203125,0.0200461310066938,474.080152109691
0.0859375,0.0175675201817798,474.076959342896
0.08984375,0.0148082169756168,474.078533207363
0.09375,0.0119385045632407,474.079193805893
0.09765625,0.00939777949992104,474.075877845559
0.1015625,0.00732552048835118,474.079769193203
0.10546875,0.0055370198692611,474.078184971934
0.109375,0.00422180848591132,474.080923642046
0.11328125,0.0040333798309439,474.077754651879
0.1171875,0.00451773285605499,474.077679416464
0.12109375,0.0033898103139835,474.080635044419
0.125,-0.000964509539798218,474.080636391716
0.12890625,-0.00693339351929955,474.079627153547
0.1328125,-0.0115778697519157,474.080996369206
0.13671875,-0.0141570048179456,474.078618081455
0.140625,-0.0157463329192917,474.07861698611
0.14453125,-0.0168875910088595,474.077031047833
0.1484375,-0.0168267084203461,474.078976689071
0.15234375,-0.0143172109135733,474.076959127356
0.15625,-0.00989262648154376,474.078976646293
0.16015625,-0.0068047450759301,474.078977594254
0.1640625,-0.00789150947636767,474.077319575571
0.16796875,-0.0120030649834708,474.078969516219
0.171875,-0.0148057351568105,474.07933812465
0.17578125,-0.0130226426518391,474.07854524064
0.1796875,-0.0073446272658729,474.079770345161
0.18359375,-0.00169038946739551,474.07775421595
0.1875,0.000206636723760775,474.077679417336
0.19140625,-0.00183575238630989,474.078034950241
0.1953125,-0.00478839903301589,474.078472596742
0.19921875,-0.00639992719716385,474.076814747489
0.203125,-0.00724637895644042,474.077166980579
0.20703125,-0.00833928571923476,474.078832637051
0.2109375,-0.00916197796290117,474.075517375967
0.21484375,-0.00902885735753983,474.076813305426
0.21875,-0.00865004903192565,474.076525601107
0.22265625,-0.00929247919404905,474.076669631017
0.2265625,-0.0112247386901645,474.075660497142
0.23046875,-0.013437059436455,474.075871269767
0.234375,-0.0142961952682438,474.078183172817
0.23828125,-0.0129434244693244,474.074652055753
0.2421875,-0.0102287000988503,474.078452948399
0.24609375,-0.00777766150197087,474.079338002828
0.25,-0.00668680398227089,474.076094360297
0.25390625,-0.00700231492896085,474.077750684947
0.2578125,-0.00779425416177057,474.077751526565
0.26171875,-0.008458836551717,474.079409482304
0.265625,-0.00958179468511182,474.07825696903
0.26953125,-0.0113731296435181,474.079193478841
0.2734375,-0.0126954638973884,474.075589725006
0.27734375,-0.0124131755696532,474.07657937737
0.28125,-0.0106095673457221,474.078760346735
0.28515625,-0.00865596040816691,474.076670783753
0.2890625,-0.0082832441968717,474.078688063416
0.29296875,-0.0100576934314493,474.076094084335
0.296875,-0.0129103252956804,474.077173988784
0.30078125,-0.0154444040193638,474.076679192493
0.3046875,-0.0171897564178156,474.075459052163
0.30859375,-0.0181314103005453,474.07436217909
0.3125,-0.0177650985566015,474.077605573107
0.31640625,-0.0157043449866033,474.077607283307
0.3203125,-0.0130367618323876,474.078256032721
0.32421875,-0.0118335656859278,474.077757862245
0.328125,-0.0129432719707931,474.077318946064
0.33203125,-0.0147915152185747,474.078544206271
0.3359375,-0.0147087646055061,474.077896118286
0.33984375,-0.0121349432572378,474.079697833723
0.34375,-0.0099781883787941,474.077766410492
0.34765625,-0.0110277647573889,474.077030511809
0.3515625,-0.014153243029856,474.077738442061
0.35546875,-0.015942479193144,474.079179067886
0.359375,-0.0148524856705968,474.080059141715
0.36328125,-0.0127727167800193,474.078257363931
0.3671875,-0.0126719943764973,474.078749745343
0.37109375,-0.0145768669168161,474.081356329941
0.375,-0.0154194532870137,474.080441092847
0.37890625,-0.0139111539244157,474.075950689384
0.3828125,-0.0127899563790542,474.076441702899
0.38671875,-0.0142557341730724,474.079171935163
0.390625,-0.0161041474173588,474.080265399862
0.39453125,-0.0149887773945244,474.080842077946
0.3984375,-0.01147221899691,474.08207828157
0.40234375,-0.00942947865240175,474.0791955949
0.40625,-0.011194503220277,474.080995977382
0.41015625,-0.0148288733219925,474.079128112387
0.4140625,-0.0163312302678024,474.07890552277
0.41796875,-0.0139915421076788,474.079187739153
0.421875,-0.0103027328327164,474.080191180651
0.42578125,-0.00959906490032964,474.080996714592
0.4296875,-0.0137835717478705,474.080204119917
0.43359375,-0.0206060037620659,474.08243814162
0.4375,-0.0259563272958748,474.082157953964
0.44140625,-0.0276342955938101,474.080139490246
0.4453125,-0.0272477673996615,474.079843124282
0.44921875,-0.0279355711509863,474.081933362694
0.453125,-0.0309261236317898,474.080276758326
0.45703125,-0.0353015117725746,474.082366081616
0.4609375,-0.0393829062873874,474.079556220333
0.46484375,-0.0417537310563231,474.081995149643
0.46875,-0.0419809047459232,474.082439320561
0.47265625,-0.0406928536610022,474.079988750954
0.4765625,-0.0393217919870156,474.080762363228
0.48046875,-0.0396279342897583,474.084240658609
0.484375,-0.0424538815815147,474.080638548672
0.48828125,-0.0462821168319196,474.083285184336
0.4921875,-0.0480382828950483,474.084156395134
0.49609375,-0.0459686480775634,474.085323799281
0.5,-0.0407368717705001,474.083522344822
0.50390625,-0.0339665193204157,474.084314111955
0.5078125,-0.0268035837702459,474.084026283864
0.51171875,-0.0199095522504992,474.084602730107
0.515625,-0.0138902686100439,474.083882307769
0.51953125,-0.00913170907194734,474.087341577689
0.5234375,-0.00616159028381866,474.083667758471
0.52734375,-0.00575618120835206,474.086895224068
0.53125,-0.0074445078622696,474.087485992342
0.53515625,-0.0092471171322925,474.087560049752
0.5390625,-0.00962100995150682,474.086269337402
0.54296875,-0.00888430426801926,474.085980186801
0.546875,-0.0092568199656761,474.084603838508
0.55078125,-0.0131320664934157,474.087621167613
0.5546875,-0.0194174854087666,474.087984723478
0.55859375,-0.0215173432532224,474.089290287233
0.5625,-0.0106658153169066,474.087777387168
0.56640625,0.0171613146005269,474.087992660386
0.5703125,0.0572979154786994,474.086335054415
0.57421875,0.100752239795128,474.087688376213
0.578125,0.142587069223444,474.088551984784
0.58203125,0.181988362491387,474.090660218021
0.5859375,0.212953477459,474.089219789896
0.58984375,0.221650480699031,474.090508134566
0.59375,0.197569591275207,474.090871196207
0.59765625,0.145440324065124,474.091443583145
0.6015625,0.0850175106978303,474.092535918156
0.60546875,0.0380509150973812,474.092184536053
0.609375,0.0140570064479171,474.090590083543
0.61328125,0.00844585829193393,474.094481185193
0.6171875,0.0110080361094621,474.092321517558
0.62109375,0.0132041090670061,474.094049877083
0.625,0.0104674165500707,474.091600504168
0.62890625,0.00302009607259257,474.096139530723
0.6328125,-0.00479014297102825,474.091615062161
0.63671875,-0.00889075062413667,474.091094162728
0.640625,-0.00936222666486604,474.094517279208
0.64453125,-0.00915526396426825,474.096475151594
0.6484375,-0.00973823808517573,474.098305400852
0.65234375,-0.00907327864239209,474.097597373111
0.65625,-0.00507040975114778,474.096663752646
0.66015625,0.000558284700126931,474.095349835403
0.6640625,0.00404139537042208,474.095559650758
0.66796875,0.00389024409476572,474.097727836432
0.671875,0.00217642330440729,474.097152636687
0.67578125,0.00155004580894435,474.09808918374
0.6796875,0.0021297661319038,474.095711442378
0.68359375,0.00260743726016578,474.098088195631
0.6875,0.00319889356064917,474.098019176086
0.69140625,0.00562248813155559,474.097873538585
0.6953125,0.0104245485163129,474.097873460993
0.69921875,0.0156209809489303,474.097296886417
0.703125,0.0184839145940787,474.097366612565
0.70703125,0.0181239659062754,474.098076504413
0.7109375,0.0160502880912325,474.099165743164
0.71484375,0.0144955893367539,474.099382121549
0.71875,0.0139878290470128,474.101389114315
0.72265625,0.0130942365259715,474.102200467018
0.7265625,0.0117571919535165,474.099177914212
0.73046875,0.0130189820408525,474.099027444507
0.734375,0.0187461516883097,474.100457627035
0.73828125,0.0258448102714501,474.10097450785
0.7421875,0.0295748264435228,474.10069161109
0.74609375,0.0289510059706897,474.100261502512
0.75,0.0272829093585307,474.099617524243
0.75390625,0.0284770551022841,474.098378991612
0.7578125,0.0334554622122379,474.099375371871
0.76171875,0.039908496035459,474.100036829343
0.765625,0.0449121828748591,474.099892971145
0.76953125,0.0473703906110128,474.101389645859
0.7734375,0.048486530954814,474.102265966301
0.77734375,0.0498551947569975,474.102554337932
0.78125,0.0512356075168941,474.10364251128
0.78515625,0.0511233201866091,474.102420089812
0.7890625,0.0490402687412209,474.102345021821
0.79296875,0.0466294848455603,474.104579126107
0.796875,0.046104988366486,474.100689072372
0.80078125,0.0472277106121902,474.105298563357
0.8046875,0.0475529563468618,474.103302639945
0.80859375,0.04611867959441,474.102417467785
0.8125,0.0444366813806785,474.103858477311
0.81640625,0.0438614082109277,474.103499217789
0.8203125,0.0438394390967959,474.106525790536
0.82421875,0.0426729307160757,474.104394293267
0.828125,0.0394272717460022,474.102801792297
0.83203125,0.0351292811826564,474.101336008933
0.8359375,0.0315167602082272,474.105010729188
0.83984375,0.0287094682500456,474.104729065588
0.84375,0.0252820637830696,474.104508752949
0.84765625,0.0200753563103585,474.10840025967
0.8515625,0.0133962156374522,474.105448495967
0.85546875,0.00732722860429823,474.107968556139
0.859375,0.00386421043787417,474.106168828933
0.86328125,0.00142496949704109,474.106237375447
0.8671875,-0.00581023536323906,474.107606719575
0.87109375,-0.0224357898129016,474.107679828311
0.875,-0.0445500575326947,474.109267480224
0.87890625,-0.0621463754330521,474.106962580887
0.8828125,-0.069355720083176,474.109050687036
0.88671875,-0.0674190439490255,474.108403727365
0.890625,-0.0607796174133201,474.108403218794
0.89453125,-0.0547908328941484,474.109324268005
0.8984375,-0.0533311365781399,474.110422033209
0.90234375,-0.0563501125182306,474.108116554617
0.90625,-0.0612434571362888,474.109253755917
0.91015625,-0.0653337108631679,474.109985762952
0.9140625,-0.066195492277393,474.110129997304
0.91796875,-0.0626577311399976,474.111359298141
0.921875,-0.0567149318961995,474.108982085459
0.92578125,-0.0524669989134666,474.110466008548
0.9296875,-0.0525744922240949,474.112508711111
0.93359375,-0.0558854104567347,474.112655598451
0.9375,-0.0584702019924595,474.112868393651
0.94140625,-0.0578624559572268,474.114892638826
0.9453125,-0.0557008035298997,474.112660200871
0.94921875,-0.0549352200185158,474.114459968367
0.953125,-0.0560424660803347,474.110786226095
0.95703125,-0.0573103797454176,474.111132869816
0.9609375,-0.0570924080810293,474.115529117868
0.96484375,-0.0539174173737969,474.115900440848
0.96875,-0.0457692794622136,474.116044957212
0.97265625,-0.0324866186935276,474.116328683906
0.9765625,-0.018172727160911,474.117777970703
0.98046875,-0.00815899347884753,474.117148646318
0.984375,-0.00405174730789897,474.112877966652
0.98828125,-0.00344739043596978,474.114424430485
0.9921875,-0.00361431705856643,474.11806512365
0.99609375,-0.00381410141262374,474.115833607365
1,-0.00443677800918036,474.116397817391
1.00390625,-0.00586610015017204,474.117110040267
1.0078125,-0.0084174621686236,474.120661265466
1.01171875,-0.0113223275261755,474.120033590498
1.015625,-0.0124714345355054,474.115979088239
1.01953125,-0.011431310919098,474.119196434435
1.0234375,-0.0104394690670582,474.120069572587
1.02734375,-0.0108262679862862,474.121384300202
1.03125,-0.0112465746886316,474.120304208087
1.03515625,-0.0101234886658898,474.12217684275
1.0390625,-0.00804088946985577,474.120016655651
1.04296875,-0.00702243666297001,474.120951578531
1.046875,-0.00784540056390518,474.120592083161
1.05078125,-0.00861200153580626,474.123474148576
1.0546875,-0.00619528746333869,474.122467808235
1.05859375,0.000133217731105182,474.124916954483
1.0625,0.00677468861953761,474.123694070338
1.06640625,0.00942185372597788,474.124485652004
1.0703125,0.00750232251395329,474.123777684065
1.07421875,0.00321711710524499,474.123044331824
1.078125,-0.00128820572207648,474.125169742406
1.08203125,-0.00435552017356915,474.12736993982
1.0859375,-0.0048005491167166,474.124292209863
1.08984375,-0.00267851600205037,474.123549055037
1.09375,0.000524842250342997,474.124260329435
1.09765625,0.00251033251976574,474.124702481641
1.1015625,0.0013789070537053,474.123765959036
1.10546875,-0.00264587437096859,474.124399452759
1.109375,-0.00706141358796746,474.125612972833
1.11328125,-0.00940498191096325,474.127874527141
1.1171875,-0.00926090178461991,474.127083430828
1.12109375,-0.00823263017891628,474.129965003321
1.125,-0.00841333513474406,474.129543987669
1.12890625,-0.0103562530953237,474.128898679787
1.1328125,-0.0124980671945753,474.128029430571
1.13671875,-0.0127829731479111,474.127659867914
1.140625,-0.0109191500790813,474.129389041039
1.14453125,-0.00909877210898676,474.126724535585
1.1484375,-0.00983484860560667,474.130036673896
1.15234375,-0.013122880165538,474.128250146566
1.15625,-0.0171570756373375,474.127804121166
1.16015625,-0.0214635896313286,474.130213370453
1.1640625,-0.0270466567447382,474.13256256454
1.16796875,-0.0333371561895266,474.132347798814
1.171875,-0.0373640002819361,474.132707873278
1.17578125,-0.0371665044706134,474.131785410897
1.1796875,-0.0346023465169147,474.131062137833
1.18359375,-0.0337928345529718,474.130328641213
1.1875,-0.0372659568287549,474.133316747188
1.19140625,-0.0432452881477971,474.135054350057
1.1953125,-0.0469572124643917,474.137250444637
1.19921875,-0.0455332656988956,474.132915553149
1.203125,-0.0407856103299771,474.130041283603
1.20703125,-0.0364399972208114,474.134651150283
1.2109375,-0.0335808747878769,474.132782105111
1.21484375,-0.0301365107935709,474.136382995352
1.21875,-0.0250541164388167,474.135615901369
1.22265625,-0.0211283831513153,474.132278237003
1.2265625,-0.0217223965195508,474.135857325385
1.23046875,-0.025377382711315,474.136602467628
1.234375,-0.0266906047916882,474.135810199505
1.23828125,-0.022975235643954,474.137250485085
1.2421875,-0.0168393676024117,474.135162351639
1.24609375,-0.0124010848378002,474.136529338058
1.25,-0.0115381813556465,474.135233719861
1.25390625,-0.0128580733933052,474.135304516588
1.2578125,-0.0136971302006485,474.132926873994
1.26171875,-0.0135251058322582,474.139120994451
1.265625,-0.0136248082744186,474.137253696034
1.26953125,-0.0140793927305987,474.139413412557
1.2734375,-0.0140948410940683,474.138494636686
1.27734375,-0.0146065494715318,474.137633538881
1.28125,-0.0179353729181028,474.135810825461
1.28515625,-0.0240210524145532,474.138979657589
1.2890625,-0.0274085129085779,474.137829982315
1.29296875,-0.0196888218065654,474.139558053955
1.296875,0.00364450179314471,474.13877152067
1.30078125,0.039558019497416,474.138622244235
1.3046875,0.081166568004623,474.13982363924
1.30859375,0.124305725936312,474.141289677794
1.3125,0.167936398930774,474.140660176297
1.31640625,0.204908116721166,474.138335667995
1.3203125,0.216528425253935,474.138542681048
1.32421875,0.185131887141504,474.141648301177
1.328125,0.114745964526821,474.140786701882
1.33203125,0.0355296923568177,474.143307544466
1.3359375,-0.0177828182354489,474.142602455143
1.33984375,-0.0325150319352712,474.14186814366
1.34375,-0.0213244574201972,474.143740915317
1.34765625,-0.00459840280948647,474.141077040582
1.3515625,0.00477962796084258,474.143282931245
1.35546875,0.0045077578278522,474.144293233455
1.359375,-0.00132100673928205,474.146913995397
1.36328125,-0.00737226080782197,474.146282644371
1.3671875,-0.010115037998786,474.145114030966
1.37109375,-0.00934993323599484,474.148355243735
1.375,-0.00771093287044018,474.147858309881
1.37890625,-0.00729947787942465,474.147714574397
1.3828125,-0.00775326400455593,474.144035013804
1.38671875,-0.00804337205359224,474.14770567609
1.390625,-0.00783739659823242,474.147133134367
1.39453125,-0.00682864761187821,474.148354864885
1.3984375,-0.0047025847036974,474.148428455327
1.40234375,-0.00211263796804365,474.148863041789
1.40625,-0.000215852879056987,474.145909565906
1.41015625,0.000926957275564271,474.149508741999
1.4140625,0.00206976787872574,474.145694134882
1.41796875,0.00329982025725263,474.148932149063
1.421875,0.00392424817165644,474.147494673702
1.42578125,0.00340254637073689,474.148357681755
1.4296875,0.00239644925640759,474.148007655128
1.43359375,0.00278766570582669,474.147133278476
1.4375,0.00568605242480733,474.148850688038
1.44140625,0.0103174509823136,474.149223886465
1.4453125,0.0153053205023859,474.146596947183
1.44921875,0.0192723904453063,474.144825755826
1.453125,0.0207882273053135,474.149147281656
1.45703125,0.019677308357944,474.147639014937
1.4609375,0.0179061885201672,474.148422078106
1.46484375,0.0176648203655048,474.148710065305
1.46875,0.0190740137901597,474.150304341412
1.47265625,0.0210930904182833,474.147640294092
1.4765625,0.0234751180826212,474.14770694286
1.48046875,0.0265229232223105,474.148718156961
1.484375,0.0295145597455454,474.146053637119
1.48828125,0.0308111941150446,474.149148535698
1.4921875,0.0309275375697743,474.148593166882
1.49609375,0.0334358748636654,474.145909065767
1.5,0.0400130596377185,474.149076312419
1.50390625,0.0473532280689858,474.14822715797
1.5078125,0.0513110226273486,474.14772488208
1.51171875,0.051144917317219,474.145692048356
1.515625,0.04891286514308,474.150516878459
1.51953125,0.0468439694828459,474.14677609426
1.5234375,0.0455305200342054,474.147611533481
1.52734375,0.0446089828860763,474.150519515777
1.53125,0.0442930379886677,474.14953940877
1.53515625,0.0447275192572973,474.147379037057
1.5390625,0.0450146951221692,474.146195690366
1.54296875,0.0438545679845383,474.15145390334
1.546875,0.0405004393541936,474.14764171553
1.55078125,0.0351811796760314,474.14850186374
1.5546875,0.0286335547136961,474.147517491477
1.55859375,0.0212942294125875,474.145907808901
1.5625,0.0134197880837449,474.147448577554
1.56640625,0.00558165708907245,474.151456163795
1.5703125,-0.00147340971546087,474.146200993136
1.57421875,-0.00740483901974024,474.147314657323
1.578125,-0.0125816467180047,474.150879463878
1.58203125,-0.0172897027335767,474.149586167762
1.5859375,-0.0205528474270906,474.150521167299
1.58984375,-0.0208518089583044,474.148260125981
1.59375,-0.0181350895264354,474.145980300774
1.59765625,-0.0142008810483329,474.150300857196
1.6015625,-0.0113610331124718,474.149369393456
1.60546875,-0.010645060868587,474.150737022514
1.609375,-0.0111778278932994,474.148598150461
1.61328125,-0.0116412953071542,474.14785417425
1.6171875,-0.0116896672256625,474.148063148838
1.62109375,-0.0123286008074125,474.149006729679
1.625,-0.0151701854493552,474.14691862958
1.62890625,-0.0200568224943864,474.147202105867
1.6328125,-0.0239159623429816,474.14727416395
1.63671875,-0.0238036608581604,474.148192890017
1.640625,-0.0207033673793423,474.14943939044
1.64453125,-0.0180985506130476,474.148936175552
1.6484375,-0.0172518134833949,474.149439824107
1.65234375,-0.0164148191746593,474.146849843979
1.65625,-0.0141458844160653,474.14677195587
1.66015625,-0.0114053195799665,474.147968320243
1.6640625,-0.0104257412125757,474.149799451571
1.66796875,-0.0122821354186986,474.148072189552
1.671875,-0.0157656350986069,474.15030318877
1.67578125,-0.0182373084361626,474.149257768249
1.6796875,-0.0176113108957898,474.145549626476
1.68359375,-0.0143494592207499,474.147522206868
1.6875,-0.0112322476878807,474.149727125585
1.69140625,-0.010252329157291,474.146343309222
1.6953125,-0.0106774006483683,474.148494930167
1.69921875,-0.0111323831769847,474.148641692618
1.703125,-0.0115656409142776,474.151240406501
1.70703125,-0.0121105675467811,474.149442640337
1.7109375,-0.0126284454982374,474.150232788865
1.71484375,-0.0135371319016702,474.147712607539
1.71875,-0.0148947074681045,474.148059061736
1.72265625,-0.015988678064389,474.149150823224
1.7265625,-0.0163252672829427,474.147711289325
1.73046875,-0.0152423175749261,474.148974675384
1.734375,-0.0124048107318597,474.151097281887
1.73828125,-0.00974337070294939,474.150378903588
1.7421875,-0.0103458004674931,474.152178805344
1.74609375,-0.0154503552105824,474.149299791004
1.75,-0.0235451116424932,474.149783970624
1.75390625,-0.0313336299895977,474.152178414885
1.7578125,-0.0354188659183849,474.150380275811
1.76171875,-0.034123855464491,474.15217877811
1.765625,-0.0288848186110353,474.150740430367
1.76953125,-0.0236801801640463,474.151458918075
1.7734375,-0.0215304455619443,474.149383157181
1.77734375,-0.0222966251816678,474.149007894578
1.78125,-0.0244135293887696,474.150592350741
1.78515625,-0.0265390633035967,474.150455669677
1.7890625,-0.027441192171775,474.148435952752
1.79296875,-0.0264329449287675,474.148361313034
1.796875,-0.024275592997165,474.147350134959
1.80078125,-0.0229289326091139,474.148640242962
1.8046875,-0.0239205920451458,474.148787418416
1.80859375,-0.026689814408456,474.149070698145
1.8125,-0.0292742630398686,474.150016378203
1.81640625,-0.0307029422251685,474.147928567559
1.8203125,-0.0315172234119766,474.14915034931
1.82421875,-0.0322436687426004,474.147999489406
1.828125,-0.032389175264994,474.149798695565
1.83203125,-0.0308600612339332,474.149591794065
1.8359375,-0.0270528628282468,474.148794880301
1.83984375,-0.0216757055952076,474.148722033334
1.84375,-0.0170688642550468,474.146990501085
1.84765625,-0.015826027367068,474.14785261408
1.8515625,-0.0175931964888628,474.146989425844
1.85546875,-0.019284702864172,474.149653268625
1.859375,-0.0196571248549392,474.147640050347
1.86328125,-0.0203349802593909,474.148717781334
1.8671875,-0.0220405877206674,474.145550046254
1.87109375,-0.0227733895186156,474.150299565971
1.875,-0.0202596541179953,474.146472956993
1.87890625,-0.0154781168735287,474.144249318655
1.8828125,-0.0123578529510269,474.145445117529
1.88671875,-0.0135487414627978,474.146914827996
1.890625,-0.0181017248079596,474.146777740542
1.89453125,-0.0232282884726722,474.143530688355
1.8984375,-0.0268506501636147,474.14561516968
1.90234375,-0.0285329292756381,474.144969756517
1.90625,-0.028974257738601,474.145473053945
1.91015625,-0.0285853051518764,474.143024913784
1.9140625,-0.0265750860660714,474.147271027367
1.91796875,-0.0223352948180691,474.145332138749
1.921875,-0.0171625345188047,474.147490201202
1.92578125,-0.0137843300470144,474.145512013034
1.9296875,-0.0142903422162266,474.143987350318
1.93359375,-0.017748331436897,474.142806220403
1.9375,-0.0201675400354353,474.145109973245
1.94140625,-0.0184625504769255,474.145113127841
1.9453125,-0.0138469155635673,474.141962120172
1.94921875,-0.00998182420577766,474.141435222552
1.953125,-0.0087490990232999,474.142066378724
1.95703125,-0.00894398194409335,474.143164719406
1.9609375,-0.00873200497004383,474.142534844978
1.96484375,-0.00827467384399929,474.141364018569
1.96875,-0.00849820433789623,474.144361600949
1.97265625,-0.00840832290956893,474.145184724783
1.9765625,-0.00671794200546124,474.142855593434
1.98046875,-0.00516174790709406,474.14064356372
1.984375,-0.00739050071957872,474.140988466222
1.98828125,-0.0148051613809772,474.143654033297
1.9921875,-0.0237755525466844,474.144031091909
1.99609375,-0.0269483028974305,474.141528158536
2,-0.0184540610258454,474.141016882034
2.00390625,0.00246463076440661,474.139944878597
2.0078125,0.0334430791766789,474.13876753406
2.01171875,0.0724402590553363,474.139542827473
2.015625,0.118486187804833,474.14028031211
2.01953125,0.169169149795018,474.139231908198
2.0234375,0.214309328301045,474.136821826313
2.02734375,0.234044562744564,474.136888194342
2.03125,0.211009511016498,474.140299651853
2.03515625,0.147117127242484,474.142082635418
2.0390625,0.0674458265115095,474.139491355446
2.04296875,0.00525382682107314,474.141144051904
2.046875,-0.0212238348177366,474.14080061533
2.05078125,-0.0180713059366868,474.13538416866
2.0546875,-0.00337108553512186,474.135724261057
2.05859375,0.00899270285002296,474.137393997045
2.0625,0.0137470505916371,474.136691926022
2.06640625,0.0110325986290359,474.135882345552
2.0703125,0.00429945715277751,474.136514563378
2.07421875,-0.00134400037230672,474.137323181302
2.078125,-0.00267887691508772,474.136531808332
2.08203125,-0.000448383058602702,474.136808139004
2.0859375,0.00234503462446764,474.138619783869
2.08984375,0.00331422208020968,474.133509037903
2.09375,0.0024331344547323,474.135301933795
2.09765625,0.00136728172658391,474.133588943947
2.1015625,0.00091587053250001,474.133213299146
2.10546875,0.000674901683317009,474.133910480473
2.109375,0.000620432117035647,474.135951213415
2.11328125,0.000915790947942147,474.134513382516
2.1171875,0.00133560275671874,474.135951535299
2.12109375,0.00113698179217477,474.132496993094
2.125,-0.00114516081015873,474.134364215414
2.12890625,-0.00597558539475542,474.13267340619
2.1328125,-0.011276691951464,474.131122998151
2.13671875,-0.0143654310856398,474.13378604013
2.140625,-0.0143838189286528,474.132728431828
2.14453125,-0.0122381733797931,474.131987645549
2.1484375,-0.0091858441706934,474.134003359364
2.15234375,-0.00570000067573782,474.132191010513
2.15625,-0.00152163158445951,474.127665134241
2.16015625,0.00340052155795246,474.130684220533
2.1640625,0.00846765330755783,474.129464588835
2.16796875,0.012678540531496,474.13054291378
2.171875,0.0152747067839437,474.12781941701
2.17578125,0.0164715233744242,474.127515626553
2.1796875,0.0171206619171467,474.128523609439
2.18359375,0.0178200266634596,474.126826966605
2.1875,0.0185028515214102,474.125641352232
2.19140625,0.0187532944245062,474.126645506038
2.1953125,0.0189233518768406,474.126722070079
2.19921875,0.0197347214692675,474.126514799687
2.203125,0.0205978026710128,474.123841146581
2.20703125,0.0207116137786646,474.124394630525
2.2109375,0.0211736555444447,474.12607089131
2.21484375,0.0236489969908597,474.12276055145
2.21875,0.0277605893679659,474.125275757087
2.22265625,0.031062760010341,474.124090956667
2.2265625,0.0314027125001383,474.121709036831
2.23046875,0.0295410424373746,474.120592695661
2.234375,0.0288456839328165,474.122608024007
2.23828125,0.0310922829053759,474.122054300222
2.2421875,0.0339597755083081,474.120233544117
2.24609375,0.0340199404416911,474.120715934885
2.25,0.0305010499356471,474.124048855313
2.25390625,0.0252302370027006,474.118220986742
2.2578125,0.0201173869560975,474.119966094264
2.26171875,0.0154979525295821,474.122464148689
2.265625,0.010666161116986,474.119370630655
2.26953125,0.00543494076972404,474.121669933449
2.2734375,0.000683896272871822,474.119369371408
2.27734375,-0.00256743758627886,474.120589827005
2.28125,-0.00403288891265446,474.118431579142
2.28515625,-0.00427179421921626,474.119333430055
2.2890625,-0.00445957072489069,474.122030678891
2.29296875,-0.00532132482588078,474.119709284405
2.296875,-0.00635812157930421,474.117420787176
2.30078125,-0.00694316284820987,474.118205058747
2.3046875,-0.00702779931796297,474.118355901084
2.30859375,-0.00667373855009743,474.116926618213
2.3125,-0.00623899312781574,474.116634726525
2.31640625,-0.00633860947420128,474.11584773864
2.3203125,-0.0069909267791311,474.115269680401
2.32421875,-0.00750966732341338,474.114534383295
2.328125,-0.00744189711595788,474.116665973423
2.33203125,-0.00727332266160428,474.117561920988
2.3359375,-0.00797710716106208,474.112162364656
2.33984375,-0.00991981198910152,474.113443797918
2.34375,-0.0123685619213023,474.113592639996
2.34765625,-0.0143773498218303,474.113740061043
2.3515625,-0.015841064299013,474.112444158271
2.35546875,-0.0168136345141162,474.115178135778
2.359375,-0.0169903135939716,474.112878563299
2.36328125,-0.0170649176764984,474.114962840072
2.3671875,-0.018263384600031,474.113022228723
2.37109375,-0.0196128885825764,474.114891058782
2.375,-0.0188616513992134,474.113781412408
2.37890625,-0.0162675892296673,474.110211186253
2.3828125,-0.0142599856787331,474.112654311119
2.38671875,-0.0139786038355946,474.11062523895
2.390625,-0.0140308959924121,474.107685489287
2.39453125,-0.0121337847420936,474.109386919218
2.3984375,-0.00805692698795137,474.110133494097
2.40234375,-0.00461057721507582,474.108910133202
2.40625,-0.00460331627645347,474.110958410826
2.41015625,-0.00745869911663868,474.112368523672
2.4140625,-0.00995440337858979,474.110395334526
2.41796875,-0.0101854131262713,474.108709145566
2.421875,-0.00981245060193848,474.108259323646
2.42578125,-0.0117122054588222,474.108906972201
2.4296875,-0.0158983984970144,474.107468089959
2.43359375,-0.0192471721399594,474.109337611532
2.4375,-0.0194720763947778,474.106604838097
2.44140625,-0.0173867856812309,474.108400137514
2.4453125,-0.0154615535079935,474.106531261375
2.44921875,-0.0158241344381516,474.106888048258
2.453125,-0.0183542243138403,474.103792761696
2.45703125,-0.0203862928277089,474.104759155953
2.4609375,-0.0197805082779961,474.108397919745
2.46484375,-0.017216405758514,474.10819625917
2.46875,-0.01442836557378,474.106157301031
2.47265625,-0.0120700584126433,474.102854005489
2.4765625,-0.0103276324423971,474.107601661241
2.48046875,-0.00962977353587021,474.106313944504
2.484375,-0.00983567139546588,474.108183599252
2.48828125,-0.0100155019242102,474.102715123732
2.4921875,-0.00931431021054491,474.105009476506
2.49609375,-0.00768914788856791,474.103889086331
2.5,-0.00594812337770014,474.102634941751
2.50390625,-0.00529470941205665,474.104361372866
2.5078125,-0.00662663392942887,474.102060562253
2.51171875,-0.00950627037946282,474.103741152155
2.515625,-0.0121117980222244,474.105804367529
2.51953125,-0.0130965471206188,474.103874675627
2.5234375,-0.0129866136832901,474.103581125762
2.52734375,-0.012705636791257,474.10279553512
2.53125,-0.0115024379997138,474.102152466718
2.53515625,-0.00841938089562015,474.100040234545
2.5390625,-0.00509119360989485,474.100450529322
2.54296875,-0.00464047154357308,474.105221859652
2.546875,-0.00808137914840105,474.101746576156
2.55078125,-0.0130794561560442,474.100417581491
2.5546875,-0.0162377814492863,474.099821304764
2.55859375,-0.0158529669493973,474.101150918488
2.5625,-0.0127929765613358,474.10313580704
2.56640625,-0.00979473851028833,474.101007615374
2.5703125,-0.00856943837374588,474.100110052948
2.57421875,-0.00765263793134355,474.101117118514
2.578125,-0.00520251033156701,474.099137749537
2.58203125,-0.0020104278262246,474.097946790868
2.5859375,-0.000282863597292766,474.102121076782
2.58984375,-0.00152462379367656,474.101427967993
2.59375,-0.00586426455768369,474.100503796126
2.59765625,-0.0122409753438074,474.097834212114
2.6015625,-0.0189450599921976,474.097008711629
2.60546875,-0.0241913019409626,474.098447800843
2.609375,-0.0268724277064552,474.095066905443
2.61328125,-0.0274253323814354,474.100531955174
2.6171875,-0.0276834938826217,474.098900252492
2.62109375,-0.0289516770515551,474.098538344344
2.625,-0.0305129276862117,474.095066672563
2.62890625,-0.0308943437916533,474.096068558865
2.6328125,-0.0299284276496031,474.095566499692
2.63671875,-0.0290913173710069,474.095915513998
2.640625,-0.030102270495557,474.096412534256
2.64453125,-0.0328205245944706,474.097871246309
2.6484375,-0.0350209029262214,474.09480807414
2.65234375,-0.0350006169667702,474.09397959265
2.65625,-0.0331365284618396,474.096826592925
2.66015625,-0.0307007013658672,474.097728425581
2.6640625,-0.0289190826177239,474.094921736969
2.66796875,-0.0282130213268991,474.095333598174
2.671875,-0.0268352017698274,474.096420755691
2.67578125,-0.0224995649813657,474.096647210563
2.6796875,-0.015957018019361,474.093849579184
2.68359375,-0.0104043483375319,474.09361844205
2.6875,-0.00812411365054842,474.094410130947
2.69140625,-0.00905088954481957,474.091964120736
2.6953125,-0.0112798979002698,474.09230423875
2.69921875,-0.0130240158413417,474.094839976519
2.703125,-0.0139870899434928,474.093404658841
2.70703125,-0.014291795915758,474.09736107687
2.7109375,-0.0140589912436432,474.093913345422
2.71484375,-0.0141772522032212,474.09504736421
2.71875,-0.0156993263044046,474.095348944542
2.72265625,-0.0188109643263159,474.094632531911
2.7265625,-0.0211187386448196,474.094555921268
2.73046875,-0.0160596938573004,474.094987766045
2.734375,0.0030431701425777,474.09287342875
2.73828125,0.0357741138627226,474.091267347106
2.7421875,0.074254338588222,474.090373766137
2.74609375,0.110569245462025,474.094331857701
2.75,0.142366007486992,474.093087926452
2.75390625,0.168772123798679,474.090051741634
2.7578125,0.183005425193537,474.089075521533
2.76171875,0.175108037300246,474.091710330964
2.765625,0.143004826023108,474.09245554894
2.76953125,0.0978558330739553,474.092670824074
2.7734375,0.0570058196506711,474.095056341831
2.77734375,0.0312000700819422,474.095060717471
2.78125,0.0191520373847852,474.089446228477
2.78515625,0.013341077995375,474.089778519627
2.7890625,0.00820781128672339,474.095698637009
2.79296875,0.00339112541621536,474.091319035251
2.796875,0.00152796054804429,474.092606031853
2.80078125,0.00362757854520119,474.092608582092
2.8046875,0.0074939846482625,474.091988016513
2.80859375,0.010701933843919,474.088143862468
2.8125,0.0125884946412059,474.089176357669
2.81640625,0.0130909419548277,474.092602933831
2.8203125,0.0120994169594896,474.091199436778
2.82421875,0.00980182582539231,474.090085660536
2.828125,0.00657704362596226,474.092531574336
2.83203125,0.00362371703868975,474.090778647264
2.8359375,0.00305923849633216,474.089176419098
2.83984375,0.00516110629232882,474.088300614892
2.84375,0.00712909861609618,474.087632998686
2.84765625,0.00638868277171581,474.08882160692
2.8515625,0.00300067241414803,474.090442660762
2.85546875,-0.00142180327795167,474.088141684323
2.859375,-0.00503595467176747,474.088833831062
2.86328125,-0.00680812075500262,474.090154442038
2.8671875,-0.00770506137561558,474.089031579787
2.87109375,-0.00934808593072814,474.087994119642
2.875,-0.0112399962422563,474.089072425356
2.87890625,-0.0119170443463988,474.088016536305
2.8828125,-0.0120219708466948,474.08727246566
2.88671875,-0.0130635628163391,474.088639109392
2.890625,-0.0142748278895369,474.086986479584
2.89453125,-0.0133090014029519,474.088566533097
2.8984375,-0.00944985723083567,474.087058307288
2.90234375,-0.00475997990992868,474.088033150957
2.90625,-0.00186025108351919,474.08950519926
2.91015625,-0.00100241782203007,474.086077339746
2.9140625,-0.000114584498851446,474.085469056213
2.91796875,0.002353695647906,474.085684460047
2.921875,0.00572379845582513,474.085181094256
2.92578125,0.00822878599989874,474.087051336451
2.9296875,0.00936982954303598,474.084032377101
2.93359375,0.0107171552001155,474.085681472798
2.9375,0.0133419428732311,474.084317443603
2.94140625,0.0159627085154722,474.087769235055
2.9453125,0.0174362254424461,474.084321792692
2.94921875,0.0187054781139672,474.086905550455
2.953125,0.0211624538101903,474.085759437864
2.95703125,0.0247054542968705,474.086044911248
2.9609375,0.0274700181641127,474.083094704013
2.96484375,0.0274251626711605,474.085679457507
2.96875,0.0245906330072242,474.083093975992
2.97265625,0.0209637598220205,474.083436222852
2.9765625,0.0183378081570549,474.084163074605
2.98046875,0.0167012401534397,474.084308062114
2.984375,0.0143889831348092,474.085322344518
2.98828125,0.0103380840193355,474.083669013319
2.9921875,0.0060738551592889,474.084219273581
2.99609375,0.00359155458855226,474.085970331354
3,0.00220795779639286,474.084357394071
3.00390625,-0.000297056167510651,474.082874147148
3.0078125,-0.00454917413998882,474.083502487312
3.01171875,-0.00862571360413,474.084209465763
3.015625,-0.0102168032344775,474.088993209123
3.01953125,-0.00978919435323904,474.082885267605
3.0234375,-0.00963247682905679,474.085750860113
3.02734375,-0.00996066501542437,474.08100722139
3.03125,-0.00908290885777942,474.081685743171
3.03515625,-0.00666591091410282,474.085395819409
3.0390625,-0.00449282268469426,474.087413450556
3.04296875,-0.00464604546104113,474.083549613252
3.046875,-0.0074093782597061,474.083094448195
3.05078125,-0.0109047303889466,474.082950501132
3.0546875,-0.0134459005953588,474.08232309024
3.05859375,-0.0153646253712956,474.079703694481
3.0625,-0.0176259895257194,474.081713819863
3.06640625,-0.0198874476411303,474.081649786095
3.0703125,-0.0205755980464756,474.080206703754
3.07421875,-0.0185284052354445,474.083154181949
3.078125,-0.01460728872295,474.080645528829
3.08203125,-0.0112954418890551,474.080564326536
3.0859375,-0.0104251226420645,474.082579239266
3.08984375,-0.0115156916663513,474.080245530586
3.09375,-0.0122919407398243,474.079195148816
3.09765625,-0.010760078198433,474.082196844258
3.1015625,-0.00700061716899735,474.082655394245
3.10546875,-0.00314524920054895,474.079345524803
3.109375,-0.00117884623851579,474.079406518395
3.11328125,-0.000954941639497501,474.082360858656
3.1171875,-0.00110941331979283,474.08146609522
3.12109375,-0.000917846279021251,474.079197948868
3.125,-0.000430534526732023,474.080037029094
3.12890625,-5.12203046153955e-05,474.080779607336
3.1328125,-0.000354619383593888,474.080204946952
3.13671875,-0.00150598795199487,474.080415031468
3.140625,-0.00356656579226496,474.080557809314
3.14453125,-0.006853358144498,474.081284050472
3.1484375,-0.0103736463725455,474.080660858713
3.15234375,-0.0120635556877092,474.079291515849
3.15625,-0.0117766614522794,474.078617791103
3.16015625,-0.0117529022720008,474.079030376687
3.1640625,-0.0141674840573269,474.080902763972
3.16796875,-0.0187767833785287,474.08135715531
3.171875,-0.0223913725666864,474.076680284343
3.17578125,-0.0218424836041515,474.078972361874
3.1796875,-0.0176989974055345,474.077538432321
3.18359375,-0.0134213515925394,474.078939555804
3.1875,-0.0113897343220805,474.080201866519
3.19140625,-0.0113644978920031,474.073583584255
3.1953125,-0.0120139257963078,474.079325061389
3.19921875,-0.0122519708557751,474.07825885258
3.203125,-0.0113606782783161,474.078616161136
3.20703125,-0.00919668380935324,474.078473072842
3.2109375,-0.00654992125076997,474.078746939306
3.21484375,-0.0048663637379543,474.081208121632
3.21875,-0.00530574458380413,474.07776123403
3.22265625,-0.00770183748542772,474.075374711357
3.2265625,-0.0106485059023267,474.079544912393
3.23046875,-0.0127254929764455,474.078929425338
3.234375,-0.0133485381120456,474.077681587979
3.23828125,-0.0127416710876954,474.07875872167
3.2421875,-0.0114186021379227,474.077034323089
3.24609375,-0.0100092183452223,474.078220105384
3.25,-0.00942897884432417,474.079527881352
3.25390625,-0.0102326062843013,474.080274817026
3.2578125,-0.0118732425237635,474.079853257555
3.26171875,-0.0131054808219918,474.07955497464
3.265625,-0.0131249808397448,474.082720497072
3.26953125,-0.0118633821565094,474.076623044568
3.2734375,-0.00926189935578492,474.076381399704
3.27734375,-0.00598602548064568,474.079115399525
3.28125,-0.00430474605113463,474.077538888934
3.28515625,-0.00622253996538671,474.079190045854
3.2890625,-0.0111112303832467,474.07814453938
3.29296875,-0.0155563033399278,474.076960041454
3.296875,-0.0164667549438982,474.0801240531
3.30078125,-0.0150771146910977,474.078806187796
3.3046875,-0.0151115681372966,474.076961243242
3.30859375,-0.0168296819398584,474.077893548008
3.3125,-0.0168827547595424,474.076672619911
3.31640625,-0.0135919892894775,474.078612351418
3.3203125,-0.00919652607782783,474.076924421573
3.32421875,-0.00757979202112975,474.075915557208
3.328125,-0.0107829428401009,474.073572880512
3.33203125,-0.0171071936870632,474.079172946171
3.3359375,-0.0232093180964301,474.079332525002
3.33984375,-0.0277713195722155,474.079698108077
3.34375,-0.0315168968999447,474.078259841024
3.34765625,-0.0346927716240365,474.078975855428
3.3515625,-0.036857801965789,474.07768253521
3.35546875,-0.0384301758469618,474.079190307153
3.359375,-0.0403661132851776,474.074517404566
3.36328125,-0.0427227576974194,474.074984904893
3.3671875,-0.0447683616345436,474.079904030544
3.37109375,-0.045946109286041,474.079915175428
3.375,-0.0459022976069718,474.079503262906
3.37890625,-0.044004025095397,474.077179581638
3.3828125,-0.0399946764584693,474.078109854361
3.38671875,-0.035221715841955,474.077320734393
3.390625,-0.0316889057787514,474.079117433327
3.39453125,-0.0296207400330107,474.078258491974
3.3984375,-0.0276571041907958,474.079839161932
3.40234375,-0.0254775086587668,474.077756657388
3.40625,-0.0239697793498409,474.078470973603
3.41015625,-0.0228304001048689,474.078400798886
3.4140625,-0.0206285070243634,474.07912006067
3.41796875,-0.0171589072957699,474.076100191837
3.421875,-0.0140180428798388,474.077963252457
3.42578125,-0.0127367549984378,474.076529027774
3.4296875,-0.0127854274222236,474.078633696497
3.43359375,-0.0123762219518761,474.080273352818
3.4375,-0.0113426682734613,474.077537037872
3.44140625,-0.0117529177070773,474.075302761654
3.4453125,-0.014942209447082,474.078138315855
3.44921875,-0.0185335558077729,474.079120663571
3.453125,-0.0165830717604871,474.07509310469
3.45703125,-0.00262389783903151,474.078320400888
3.4609375,0.0255406458952813,474.07763832668
3.46484375,0.0630842144165705,474.075592059348
3.46875,0.102438713095029,474.076437164532
3.47265625,0.139705341572226,474.076813460762
3.4765625,0.172667458159293,474.07520784481
3.48046875,0.193506913730923,474.073283242642
3.484375,0.190488265971267,474.073347991687
3.48828125,0.159475996774259,474.078963495758
3.4921875,0.110459457959823,474.078977594254
3.49609375,0.061885934208746,474.076819436002
3.5,0.028401730128496,474.07750269597
3.50390625,0.0126342376484359,474.079910062154
3.5078125,0.00852045393229236,474.079051912399
3.51171875,0.00923392688917068,474.08056041045
3.515625,0.0100363114503942,474.078190322231
3.51953125,0.00828985086065453,474.08012657731
3.5234375,0.00378895230184836,474.078231047549
3.52734375,-0.0018955982894911,474.076973033549
3.53125,-0.0067399087087424,474.076670046007
3.53515625,-0.00939529669747905,474.077634901421
3.5390625,-0.00946409840361193,474.080630068473
3.54296875,-0.00704101541260771,474.078766048821
3.546875,-0.00336410594330717,474.079045752446
3.55078125,-0.00120680214268367,474.079121749644
3.5546875,-0.00242066308837916,474.078568242389
3.55859375,-0.00571656480120221,474.077321303023
3.5625,-0.00850751871582431,474.077750405053
3.56640625,-0.010034424784465,474.077259742832
3.5703125,-0.0110021791299487,474.076886641829
3.57421875,-0.0109470590664818,474.077372324282
3.578125,-0.00847137448484841,474.078155140065
3.58203125,-0.00399469474433696,474.079459553494
3.5859375,0.000298679383519171,474.079968710288
3.58984375,0.00318341787518717,474.08085104471
3.59375,0.00501190325668228,474.079414093624
3.59765625,0.00596575935889162,474.079698053583
3.6015625,0.00534423632418836,474.079494386854
3.60546875,0.00281311362943141,474.076389003681
3.609375,-0.000182925881287129,474.078339446089
3.61328125,-0.00115680833242129,474.080344497656
3.6171875,0.000567131385421721,474.080279944815
3.62109375,0.00296656916925913,474.07718263532
3.625,0.00422316278388738,474.077939953568
3.62890625,0.00499644120486197,474.079008392086
3.6328125,0.00709340116285292,474.080993045867
3.63671875,0.0109515569825726,474.079086774267
3.640625,0.0148879229962901,474.078271520884
3.64453125,0.0172445468416212,474.077903942092
3.6484375,0.0189330512118056,474.077689962314
3.65234375,0.0219881782802571,474.076600149286
3.65625,0.0260786096194963,474.078960004705
3.66015625,0.0288125932461358,474.079193730134
3.6640625,0.0290769289932029,474.076101036791
3.66796875,0.0279442029016985,474.079041794598
3.671875,0.0269259424326238,474.078114656327
3.67578125,0.027198544208522,474.081348878244
3.6796875,0.0290904322032905,474.08038369583
3.68359375,0.0310493238591408,474.078980258926
3.6875,0.0310191467679377,474.081351179972
3.69140625,0.0287909981867133,474.080947014326
3.6953125,0.0256310665347622,474.078478733841
3.69921875,0.0225302899467491,474.080055115824
3.703125,0.0194867908531839,474.078261267581
3.70703125,0.016472232040862,474.080989567645
3.7109375,0.0143738406625062,474.07718496049
3.71484375,0.0133213004598632,474.079357236578
3.71875,0.0112460260331578,474.080706453929
3.72265625,0.00630285455990499,474.080288243898
3.7265625,-0.000486881819456097,474.079915806552
3.73046875,-0.00623253726984612,474.081929059969
3.734375,-0.00880130473599103,474.079273405175
3.73828125,-0.00869708466835518,474.081136095601
3.7421875,-0.00861644489707473,474.07970277017
3.74609375,-0.0100275094101997,474.080849576459
3.75,-0.0114208679455177,474.080133528149
3.75390625,-0.0109583108633595,474.080706923076
3.7578125,-0.00911424407222272,474.079937956945
3.76171875,-0.00863406789972514,474.079267225313
3.765625,-0.0118644079594342,474.079913379143
3.76953125,-0.017530149342598,474.078548671468
3.7734375,-0.022192856106412,474.080918265278
3.77734375,-0.0244935637358231,474.079126847324
3.78125,-0.0255677024751916,474.080919868418
3.78515625,-0.0264910585715741,474.078623423693
3.7890625,-0.0264856751755981,474.080774598992
3.79296875,-0.0239824046789173,474.079054544667
3.796875,-0.0196879516854899,474.079878838604
3.80078125,-0.0163815338104644,474.08171424637
3.8046875,-0.0154645716058975,474.080783261075
3.80859375,-0.016077529977932,474.08459233328
3.8125,-0.0169257733660318,474.082437488828
3.81640625,-0.0172510107621911,474.080207706758
3.8203125,-0.0168883358472073,474.082098626163
3.82421875,-0.0162759634222492,474.083518885832
3.828125,-0.015782527889895,474.079062340912
3.83203125,-0.01499861197695,474.081207335799
3.8359375,-0.0133445682459964,474.084012649262
3.83984375,-0.011236670939257,474.084163080129
3.84375,-0.0100589420170827,474.08493963532
3.84765625,-0.0108965674864888,474.085683562521
3.8515625,-0.0135262092847238,474.083167832736
3.85546875,-0.0165121658477645,474.086540718172
3.859375,-0.0182303397673127,474.084177151124
3.86328125,-0.0179428224974859,474.084381031355
3.8671875,-0.0157829383750087,474.08452294159
3.87109375,-0.0120622490430092,474.086185250275
3.875,-0.00752354005187116,474.082953593971
3.87890625,-0.0040478633166331,474.084748076436
3.8828125,-0.00347067956333708,474.087626226947
3.88671875,-0.00544386026370282,474.084108407757
3.890625,-0.00782010920451283,474.087478184012
3.89453125,-0.00872089897925362,474.086725259117
3.8984375,-0.00722947435916595,474.085501036525
3.90234375,-0.00344996215945386,474.084604616189
3.90625,0.00130945571088751,474.088088569284
3.91015625,0.00552556642124677,474.08892931648
3.9140625,0.00855249116797918,474.088930379025
3.91796875,0.00997257118047245,474.088642729931
3.921875,0.00886496548954675,474.090367767913
3.92578125,0.00499333414829564,474.088215468125
3.9296875,2.06636653935569e-05,474.089528695167
3.93359375,-0.00342561378305415,474.091450678084
3.9375,-0.00377722602832288,474.090879351046
3.94140625,-0.001884580508052,474.090877663002
3.9453125,-0.000657039913579173,474.088576548698
3.94921875,-0.00220976274428356,474.092812448833
3.953125,-0.00535622932893857,474.090944169429
3.95703125,-0.00759314453767732,474.088718400438
3.9609375,-0.00831933637490963,474.089073558972
3.96484375,-0.00828581522423446,474.088139805715
3.96875,-0.00763359598992121,474.091890484196
3.97265625,-0.0059136985456554,474.093255725579
3.9765625,-0.00343193612730999,474.092706582633
3.98046875,-0.00164523617166075,474.091313656542
3.984375,-0.00163433724883516,474.093652917927
3.98828125,-0.00271981476417835,474.094338571682
3.9921875,-0.00299279992740955,474.090096970255
3.99609375,-0.0012959199011053,474.092037378171
4,0.00081360913714185,474.094119098139
4.00390625,0.00023525184536936,474.093332165126
4.0078125,-0.0035734048282046,474.094839817269
4.01171875,-0.00769556710100138,474.094053390603
4.015625,-0.00963307600922672,474.094531969049
4.01953125,-0.00978861468219058,474.095980287058
4.0234375,-0.00961224726424488,474.096286394422
4.02734375,-0.00954632866063277,474.09441726042
4.03125,-0.00994779234721137,474.095669192549
4.03515625,-0.0122751665004087,474.096861491209
4.0390625,-0.0178063455825133,474.094903827951
4.04296875,-0.0256076713635842,474.093260708484
4.046875,-0.0323433364393263,474.093257676751
4.05078125,-0.0348443286759236,474.093873728109
4.0546875,-0.0331314405589511,474.096424412051
4.05859375,-0.0301804772805269,474.093770643155
4.0625,-0.028925349617603,474.097569080623
4.06640625,-0.0301756233435363,474.097657018708
4.0703125,-0.0328341769886729,474.096578574189
4.07421875,-0.0353281863679937,474.099810836204
4.078125,-0.0373008649379224,474.096153771837
4.08203125,-0.0395668279206469,474.100384678271
4.0859375,-0.0419543923255676,474.098240700327
4.08984375,-0.0428705283875623,474.099384478562
4.09375,-0.0416195746095309,474.098453318187
4.09765625,-0.0394492862042968,474.099672729648
4.1015625,-0.0374711411494814,474.099398618896
4.10546875,-0.0353220831735732,474.099034451702
4.109375,-0.0327189715474023,474.09889021324
4.11328125,-0.0299917960022928,474.098379643103
4.1171875,-0.0269306308152823,474.100247683654
4.12109375,-0.0236003719505739,474.098815513291
4.125,-0.0216388746112731,474.099673818707
4.12890625,-0.0225423054908255,474.097231968184
4.1328125,-0.0252002646392512,474.099952177486
4.13671875,-0.0265507763464752,474.100037029589
4.140625,-0.0246501201734922,474.099318137919
4.14453125,-0.0206080706084913,474.100390210497
4.1484375,-0.0176465861558279,474.100465541169
4.15234375,-0.0185516578917866,474.102051701195
4.15625,-0.0234461450821719,474.101049978258
4.16015625,-0.0284739995352932,474.101046812659
4.1640625,-0.0261886971634899,474.102556617878
4.16796875,-0.00937671727821757,474.102220426671
4.171875,0.023441969545961,474.100396802756
4.17578125,0.0665856553110721,474.097807051917
4.1796875,0.112451176946466,474.099946656363
4.18359375,0.157519639953391,474.103490840046
4.1875,0.199728237717465,474.101198347297
4.19140625,0.22938966209438,474.102453267137
4.1953125,0.228975983481506,474.103345442628
4.19921875,0.187364800228147,474.103490333298
4.203125,0.114535693744362,474.10615927193
4.20703125,0.0398415061351552,474.103723117524
4.2109375,-0.00834198334662829,474.105081261937
4.21484375,-0.0222908429217232,474.104079135124
4.21875,-0.0136473751064665,474.105513745459
4.22265625,0.00155100722826118,474.103864856248
4.2265625,0.0126683721811987,474.106735203825
4.23046875,0.016112570225195,474.104300149234
4.234375,0.0134029352005808,474.109252718534
4.23828125,0.00776499392538227,474.10560227165
4.2421875,0.00196073925503014,474.108322275912
4.24609375,-0.00247994818580611,474.108195439613
4.25,-0.00570493280924406,474.106748786434
4.25390625,-0.00848987701565551,474.107648876021
4.2578125,-0.0111779724239192,474.108689478511
4.26171875,-0.0141178061033106,474.108044707956
4.265625,-0.0172553645599459,474.10804261065
4.26953125,-0.0189134196799441,474.107108069833
4.2734375,-0.0168711586844988,474.108372113844
4.27734375,-0.0112909896602051,474.109023311877
4.28125,-0.00541015042610979,474.110455634224
4.28515625,-0.00260713245158403,474.111430494271
4.2890625,-0.00297489078636006,474.109818005803
4.29296875,-0.00319221252647715,474.108765774077
4.296875,-0.000349676265520874,474.111495494344
4.30078125,0.00421022391954244,474.110312427165
4.3046875,0.00626078445787613,474.109486603637
4.30859375,0.00394622373957543,474.110347664559
4.3125,-0.00020671929247986,474.109851249541
4.31640625,-0.00239929103628838,474.109777579644
4.3203125,-0.00117590807608355,474.109287054784
4.32421875,0.001823891258242,474.108693020355
4.328125,0.00400243195206404,474.109032319242
4.33203125,0.00461497693279552,474.11079242506
4.3359375,0.00515563867180004,474.112726322802
4.33984375,0.0069495867843966,474.112323762134
4.34375,0.00957884750116888,474.108199628112
4.34765625,0.0122682965258292,474.110415210839
4.3515625,0.0152346839243187,474.10869744484
4.35546875,0.0187234489095314,474.110560627733
4.359375,0.0221466468556117,474.10783536678
4.36328125,0.0247484807890839,474.113720537131
4.3671875,0.0259840840267287,474.112662008065
4.37109375,0.025787354257024,474.114257204351
4.375,0.0255511539531276,474.11611611215
4.37890625,0.0271248025097596,474.11261160618
4.3828125,0.029935271032248,474.110354769037
4.38671875,0.0315575182085156,474.110709901962
4.390625,0.0313995494354945,474.109992312534
4.39453125,0.0311085675163426,474.114518270601
4.3984375,0.0314192971578647,474.110580214785
4.40234375,0.0310600950761627,474.11099814138
4.40625,0.0294863781558063,474.109490157374
4.41015625,0.0285559598750707,474.113582093091
4.4140625,0.0295648585328097,474.111080243693
4.41796875,0.0303791952416839,474.114306193532
4.421875,0.0276678767500298,474.11264466971
4.42578125,0.0214276660341104,474.111003126426
4.4296875,0.0152052677164596,474.111215226395
4.43359375,0.0112242010569166,474.109275302453
4.4375,0.00823932953629083,474.115450039385
4.44140625,0.00449918874578916,474.112724550689
4.4453125,-0.000376587120757083,474.111362639597
4.44921875,-0.00568048316696228,474.114666474001
4.453125,-0.0099741490941351,474.112906027376
4.45703125,-0.0123492649923615,474.112370747645
4.4609375,-0.0137537455789668,474.112859613557
4.46484375,-0.0160153759277046,474.113234607229
4.46875,-0.0193499072561395,474.110216674824
4.47265625,-0.0219406263855833,474.112865583252
4.4765625,-0.0225152485565816,474.109856067967
4.48046875,-0.0218225926687629,474.113942398116
4.484375,-0.020820416259116,474.111901215943
4.48828125,-0.0192885531206795,474.111289046914
4.4921875,-0.0169575772717561,474.114594189188
4.49609375,-0.014627224275831,474.112737011491
4.5,-0.0136850263245916,474.115821004877
4.50390625,-0.0150405832271317,474.115256778921
4.5078125,-0.0183972286473777,474.115888787146
4.51171875,-0.0216726777380695,474.116191809284
4.515625,-0.022032155894962,474.114227225063
4.51953125,-0.0189900864466722,474.113048061319
4.5234375,-0.015081754593439,474.112371218032
4.52734375,-0.0128168481850223,474.113304218684
4.53125,-0.0126306479058115,474.112660667173
4.53515625,-0.0133672543465167,474.114670730307
4.5390625,-0.0134109226080886,474.113024810693
4.54296875,-0.0124783315690955,474.115103182286
4.546875,-0.0125496191074432,474.114176243427
4.55078125,-0.0150146844076088,474.116544600314
4.5546875,-0.0181126719025264,474.116348119659
4.55859375,-0.0196386370312858,474.11565598211
4.5625,-0.0198245404359024,474.112236236478
4.56640625,-0.0197375043030857,474.113326244902
4.5703125,-0.0191054117146827,474.115609244052
4.57421875,-0.0167469192883071,474.114824851189
4.578125,-0.0127020394512392,474.116978009691
4.58203125,-0.00950438015250884,474.116985692619
4.5859375,-0.0101544146583388,474.116985692619
4.58984375,-0.0147827683996872,474.118926061106
4.59375,-0.0201691326354651,474.117998736513
4.59765625,-0.0226069904724836,474.118426582961
4.6015625,-0.0211055359148669,474.117039920464
4.60546875,-0.0177773507747311,474.115402911069
4.609375,-0.0152635673073012,474.116620699327
4.61328125,-0.0141090997132867,474.11561899297
4.6171875,-0.0128731140758096,474.118418030801
4.62109375,-0.0103500351824565,474.118358613079
4.625,-0.00697252974354558,474.118288532918
4.62890625,-0.00420361171690874,474.116877874601
4.6328125,-0.00300712099890186,474.116121690122
4.63671875,-0.00315941249804895,474.118002018134
4.640625,-0.00408504218012838,474.11972245178
4.64453125,-0.00579037626072038,474.118255108549
4.6484375,-0.00837697760449312,474.117276189396
4.65234375,-0.0111241367964593,474.118719948221
4.65625,-0.012809972042315,474.121449862332
4.66015625,-0.012881943711323,474.119346531986
4.6640625,-0.0119334790910825,474.118317746312
4.66796875,-0.0107449018727377,474.117348547761
4.671875,-0.00935272325103987,474.119214637357
4.67578125,-0.00808943534209152,474.118790308512
4.6796875,-0.00894386302739426,474.12068128353
4.68359375,-0.0135087493772492,474.121887491366
4.6875,-0.01948443572643,474.119015636205
4.69140625,-0.0218143689128307,474.119579956543
4.6953125,-0.0178036726840016,474.119101227701
4.69921875,-0.0099529591988069,474.118117488781
4.703125,-0.00379187321449295,474.115622668065
4.70703125,-0.00327062606215883,474.118119051928
4.7109375,-0.00799521357930261,474.120657930816
4.71484375,-0.0145354031037331,474.118005244366
4.71875,-0.0197943543873754,474.118426527871
4.72265625,-0.0229294845818636,474.117422149479
4.7265625,-0.0246851411110443,474.120460656786
4.73046875,-0.0255724648393339,474.121455517151
4.734375,-0.0258209946484688,474.119474996162
4.73828125,-0.026772785705471,474.118861897434
4.7421875,-0.0300137959416265,474.120441633861
4.74609375,-0.035213308068816,474.117501535127
4.75,-0.0400271019014168,474.11820907955
4.75390625,-0.0420110314659261,474.117924349683
4.7578125,-0.0409185004310384,474.119935147238
4.76171875,-0.0387974190653817,474.115200406278
4.765625,-0.0373540625300416,474.118660315655
4.76953125,-0.036005384895563,474.119477323597
4.7734375,-0.0329401003937334,474.12066073543
4.77734375,-0.0279700831779344,474.120160940143
4.78125,-0.023503896968063,474.120230895043
4.78515625,-0.0219933943678704,474.118434896953
4.7890625,-0.0231425973058438,474.118699631018
4.79296875,-0.0238636340188596,474.120082349757
4.796875,-0.0213279274674378,474.119224724771
4.80078125,-0.0163908327557942,474.122023606237
4.8046875,-0.0126843269068144,474.120004095705
4.80859375,-0.012366358378564,474.118703518661
4.8125,-0.013828017738115,474.116271385029
4.81640625,-0.0135563486671094,474.121868619042
4.8203125,-0.0102925049695761,474.117291694595
4.82421875,-0.00635645169841513,474.122447231512
4.828125,-0.00429323201083066,474.120524071487
4.83203125,-0.00449828756518963,474.118361391633
4.8359375,-0.00670244767671565,474.119107079239
4.83984375,-0.0111413168617007,474.121322915486
4.84375,-0.0162961333577735,474.122680407359
4.84765625,-0.0162328542608276,474.121677456321
4.8515625,-0.00351498747678854,474.122607585582
4.85546875,0.0238221333334896,474.118875233066
4.859375,0.0605130029126189,474.119148235474
4.86328125,0.100342847629377,474.116778452295
4.8671875,0.141697262094036,474.118493588941
4.87109375,0.184284695933895,474.117422584081
4.875,0.220701695107975,474.117689148196
4.87890625,0.233743354895364,474.119431775805
4.8828125,0.206457211079736,474.117929120017
4.88671875,0.139404960291816,474.120294100618
4.890625,0.0577069188147638,474.120015918245
4.89453125,-0.00434674428905883,474.121020593086
4.8984375,-0.0293443955946702,474.119568160693
4.90234375,-0.0262004123060921,474.11792745689
4.90625,-0.0146877111591099,474.120437720733
4.91015625,-0.00690623521239213,474.117430194472
4.9140625,-0.00447491735733729,474.120220198986
4.91796875,-0.00557666968187686,474.120028615565
4.921875,-0.00943280982796313,474.118402573041
4.92578125,-0.0151477560154709,474.11742054758
4.9296875,-0.0196647187301848,474.118567853413
4.93359375,-0.0199084802274657,474.117997652941
4.9375,-0.0165793875657787,474.117995395421
4.94140625,-0.0135233989803065,474.117851718381
4.9453125,-0.0135483060909572,474.11993446824
4.94921875,-0.0161642690219558,474.117715686351
4.953125,-0.0188709270101325,474.118856309953
4.95703125,-0.0194163737138218,474.118454243239
4.9609375,-0.0169913905135506,474.116343907034
4.96484375,-0.0127858025607972,474.118635369445
4.96875,-0.00926138965231659,474.118285307212
4.97265625,-0.00768475051309501,474.120798162017
4.9765625,-0.00747641174083916,474.118844856174
4.98046875,-0.00809371134326541,474.117740622624
4.984375,-0.00928952313280008,474.116915522301
4.98828125,-0.00999631643817381,474.119643289256
4.9921875,-0.00933062475657694,474.117656191876
4.99609375,-0.00805058761388081,474.117422471887
5,-0.00770953047500046,474.117350146427
5.00390625,-0.00918321353111968,474.117142865728
5.0078125,-0.011959044670989,474.116150867563
5.01171875,-0.0141079335751459,474.115472691511
5.015625,-0.0133238822754817,474.117769786966
5.01953125,-0.00865453538276429,474.1154262076
5.0234375,-0.00156826290064817,474.115111007441
5.02734375,0.00528191046697758,474.115397857482
5.03125,0.0105667827154084,474.113746886141
5.03515625,0.0146264442455296,474.116397994708
5.0390625,0.0177889665699289,474.1127453469
5.04296875,0.0197274529616197,474.112730516521
5.046875,0.0203926178222092,474.112443193316
5.05078125,0.0208279373485962,474.112657519614
5.0546875,0.0224767074061237,474.108784465983
5.05859375,0.0253888385057392,474.108691808539
5.0625,0.0278944450265856,474.110487427823
5.06640625,0.0285702658307699,474.110063772842
5.0703125,0.0280883776051326,474.110333604692
5.07421875,0.028775370906944,474.111391193725
5.078125,0.0316451342042899,474.112511195963
5.08203125,0.0345470795793637,474.109717773303
5.0859375,0.0351199451526828,474.107830614899
5.08984375,0.0342259238988247,474.108400861427
5.09375,0.0341478021187075,474.107828603423
5.09765625,0.0348012091562892,474.108670537859
5.1015625,0.0337103769691682,474.109032760133
5.10546875,0.0292819503826017,474.110130432379
5.109375,0.0232565276863286,474.107907533508
5.11328125,0.0187541535991454,474.108113842419
5.1171875,0.0159361417820977,474.107023966599
5.12109375,0.0119161591345158,474.103870035768
5.125,0.00461769855385271,474.106660693429
5.12890625,-0.0049898158845529,474.105563265735
5.1328125,-0.0136426067588448,474.104367602726
5.13671875,-0.0184568944363238,474.105054281528
5.140625,-0.0194353236774716,474.106020434199
5.14453125,-0.0187934253937173,474.103940337559
5.1484375,-0.0181470797338218,474.103999312198
5.15234375,-0.0175899101745795,474.10436307409
5.15625,-0.0168719233857515,474.103215254996
5.16015625,-0.0162407228824902,474.103210461522
5.1640625,-0.0160709512540532,474.102941697357
5.16796875,-0.0156728258336418,474.09968930097
5.171875,-0.013400035701444,474.10205908134
5.17578125,-0.00919968942414623,474.103423734294
5.1796875,-0.00595821999649851,474.10219465939
5.18359375,-0.00687498338579632,474.099540733243
5.1875,-0.0118122750648933,474.100681364445
5.19140625,-0.0169771180387793,474.100614385428
5.1953125,-0.0185579601077449,474.102265921888
5.19921875,-0.0160131703946934,474.098322882751
5.203125,-0.0115183800025926,474.100460733787
5.20703125,-0.00733125891571083,474.098616191843
5.2109375,-0.00382809874936817,474.098378685783
5.21484375,-4.55558158917815e-05,474.099200118564
5.21875,0.00394374293447079,474.100897145553
5.22265625,0.0067604947740626,474.097096262423
5.2265625,0.00741880017818786,474.100096401839
5.23046875,0.00571474678808966,474.097092954305
5.234375,0.00220451306318873,474.09822918105
5.23828125,-0.00139664570257004,474.095766004218
5.2421875,-0.00354095893975369,474.09487675614
5.24609375,-0.00456135132167288,474.093981360997
5.25,-0.00558406219979705,474.096779136589
5.25390625,-0.00643924051411253,474.098446540762
5.2578125,-0.00625689273856916,474.098316683304
5.26171875,-0.00561334453202663,474.093781566785
5.265625,-0.00616009685879116,474.093906154444
5.26953125,-0.00810533572184103,474.09390677141
5.2734375,-0.00956677961991438,474.094177161202
5.27734375,-0.00896534590799129,474.095522772659
5.28125,-0.00720672625876079,474.096428812189
5.28515625,-0.00633597430756953,474.096143779818
5.2890625,-0.00687127692716866,474.097291520957
5.29296875,-0.00791976229870182,474.09368714519
5.296875,-0.00908584570561522,474.092682623834
5.30078125,-0.0107319594303735,474.093255185259
5.3046875,-0.0124534969507458,474.092826815829
5.30859375,-0.0128279792746737,474.095553732823
5.3125,-0.0114470437488542,474.092405964427
5.31640625,-0.010210208521379,474.095695438262
5.3203125,-0.011435416140918,474.091401262926
5.32421875,-0.0148344544446503,474.09280932983
5.328125,-0.0176447105203624,474.092959589775
5.33203125,-0.0176803028002222,474.094405728225
5.3359375,-0.0149416396918293,474.090174998795
5.33984375,-0.0108250624781819,474.091018132489
5.34375,-0.00701463073308403,474.088580463229
5.34765625,-0.00469165678924272,474.088905687576
5.3515625,-0.0041187779415389,474.092090782765
5.35546875,-0.00482042636158649,474.090021352548
5.359375,-0.00625145258216495,474.090586652599
5.36328125,-0.00861967369818644,474.087214333248
5.3671875,-0.0123078529830597,474.089497224294
5.37109375,-0.0161075672654408,474.087137782559
5.375,-0.0179733062540022,474.092512650847
5.37890625,-0.0181332850100717,474.089305274701
5.3828125,-0.0190693609426868,474.090009028449
5.38671875,-0.021723126502963,474.086422045577
5.390625,-0.0239287209852167,474.089206443632
5.39453125,-0.0234780751799853,474.088120550408
5.3984375,-0.0211018968395757,474.086267815498
5.40234375,-0.0193353400661046,474.086733957383
5.40625,-0.0195630322688279,474.089424645294
5.41015625,-0.0210625926762794,474.087654072458
5.4140625,-0.0225907775256301,474.087431064542
5.41796875,-0.024453597186267,474.083107156809
5.421875,-0.0277049311308976,474.087324791649
5.42578125,-0.0314906186853458,474.08633850152
5.4296875,-0.0339675021306057,474.086621200708
5.43359375,-0.0354724967939077,474.085976286186
5.4375,-0.0380464114657542,474.086906780591
5.44140625,-0.0425167497509859,474.086049384654
5.4453125,-0.047535636981281,474.087912289531
5.44921875,-0.0505941627686455,474.087489887705
5.453125,-0.0493880853704325,474.089713685882
5.45703125,-0.0438697157025342,474.084841449799
5.4609375,-0.0375152638485039,474.085359980519
5.46484375,-0.0343519278860682,474.087838900702
5.46875,-0.0346851450315575,474.086556208105
5.47265625,-0.0355135067853576,474.088417062487
5.4765625,-0.0345973907679178,474.083859292579
5.48046875,-0.0324410953339326,474.083377792521
5.484375,-0.0301553060563504,474.086320649874
5.48828125,-0.0273291042663358,474.084682714825
5.4921875,-0.0232576458402808,474.085464947754
5.49609375,-0.0186359312876702,474.083978455528
5.5,-0.014803964159678,474.083680082857
5.50390625,-0.0125184548939873,474.083090573805
5.5078125,-0.0117093194827526,474.083829864897
5.51171875,-0.0118300692693231,474.087976057647
5.515625,-0.0124429095469095,474.083326257066
5.51953125,-0.0133063412624778,474.084122739769
5.5234375,-0.0145725603731999,474.086110535406
5.52734375,-0.0169656141591042,474.084953589616
5.53125,-0.0211323068006362,474.082833447073
5.53515625,-0.0267090142342646,474.082368213844
5.5390625,-0.0305215504571751,474.082637054964
5.54296875,-0.0256187469376901,474.083999675816
5.546875,-0.0055463025420291,474.084385923636
5.55078125,0.0290279360869215,474.083761394059
5.5546875,0.0702752412741246,474.083255020896
5.55859375,0.11045175761688,474.082617477509
5.5625,0.14651143416107,474.081290163213
5.56640625,0.17616409871321,474.081357275193
5.5703125,0.193074993676847,474.079660052385
5.57421875,0.189996488313472,474.079194908328
5.578125,0.165066737343626,474.080363578344
5.58203125,0.124109143438959,474.081958201068
5.5859375,0.0795243307001492,474.082907267103
5.58984375,0.0449085794434943,474.083878942873
5.59375,0.02654924768168,474.083069642959
5.59765625,0.0202617930866499,474.08007113921
5.6015625,0.0171566214338259,474.0816387044
5.60546875,0.0119869856837844,474.081171126056
5.609375,0.00573220890669091,474.079704400032
5.61328125,0.00142942694543095,474.080273087954
5.6171875,-0.000518938397263385,474.079773290836
5.62109375,-0.0024842714325511,474.0799862862
5.625,-0.00587081141099812,474.078049137727
5.62890625,-0.00925183547350699,474.081270276754
5.6328125,-0.0109930497423076,474.080280515454
5.63671875,-0.0112491598791346,474.080410207603
5.640625,-0.0108121604757661,474.081281800108
5.64453125,-0.0101211413243132,474.081151331528
5.6484375,-0.00906213034080488,474.080064124629
5.65234375,-0.00718689249900444,474.08328958861
5.65625,-0.00516620909851728,474.07756236767
5.66015625,-0.00478430188654119,474.080119261548
5.6640625,-0.00654300225152107,474.078911271646
5.66796875,-0.00888434627522539,474.080484643842
5.671875,-0.00971307470770125,474.079917912406
5.67578125,-0.00785116376407675,474.080991867393
5.6796875,-0.00419173146873487,474.080325108963
5.68359375,-0.00139817206445449,474.075967087485
5.6875,-0.000987379362653324,474.077032587042
5.69140625,-0.0014000708211825,474.080550503538
5.6953125,-2.59489926912474e-06,474.080159119778
5.69921875,0.00357429133254071,474.078479582939
5.703125,0.00689699102436853,474.079334071275
5.70703125,0.00793417154021993,474.075892888706
5.7109375,0.00741002369805924,474.078532089571
5.71484375,0.00714011074261022,474.078544864481
5.71875,0.00816256767338563,474.074668943289
5.72265625,0.010745164622625,474.076229058399
5.7265625,0.01441417282915,474.078608949445
5.73046875,0.0184214559979161,474.07746056963
5.734375,0.0228088462955183,474.074589018722
5.73828125,0.0277930826745625,474.07787978871
5.7421875,0.0321058695414089,474.077829143827
5.74609375,0.0338219297811026,474.076316192318
5.75,0.0330195120694278,474.076380867148
5.75390625,0.0322146132051487,474.076045604268
5.7578125,0.0339681995742492,474.073794653268
5.76171875,0.0381295396246182,474.074461051931
5.765625,0.041623915833881,474.076876295868
5.76953125,0.0417521450338217,474.075737713387
5.7734375,0.0392682600258233,474.075947434221
5.77734375,0.0373765893320589,474.074154209745
5.78125,0.0379487000420707,474.076800973755
5.78515625,0.0395850164728722,474.075880935029
5.7890625,0.0394615729776473,474.078388313674
5.79296875,0.0360119302869185,474.073832494839
5.796875,0.0297332476731055,474.073424917073
5.80078125,0.0226746677618914,474.077227981779
5.8046875,0.0174586764383303,474.075219071006
5.80859375,0.0155829872178559,474.074076330696
5.8125,0.0161597102882601,474.075939287878
5.81640625,0.0165495028857676,474.075268715204
5.8203125,0.014170728882856,474.073629906552
5.82421875,0.00840349662604465,474.072274314178
5.828125,0.00150212337143973,474.073418551523
5.83203125,-0.00313419204087925,474.071630058923
5.8359375,-0.00457383205103312,474.074563584883
5.83984375,-0.00565918985627291,474.072353437241
5.84375,-0.0095158760454318,474.0734906561
5.84765625,-0.0152764823645904,474.073209291637
5.8515625,-0.0192188330091609,474.073813438533
5.85546875,-0.0198475949231631,474.076801041294
5.859375,-0.0194806530461627,474.075655326865
5.86328125,-0.0210631962089445,474.073217038945
5.8671875,-0.0257004850308701,474.073423154736
5.87109375,-0.0328860844154078,474.073352466269
5.875,-0.0406962071098567,474.073639157307
5.87890625,-0.0461571476880009,474.073439389258
5.8828125,-0.0474690899567622,474.072203292634
5.88671875,-0.0453270227959574,474.068750170483
5.890625,-0.041715385217968,474.072186483544
5.89453125,-0.0387055561227667,474.073421321127
5.8984375,-0.0378353731630588,474.071271416134
5.90234375,-0.0394646053798143,474.071260579975
5.90625,-0.0427052581166877,474.072618810043
5.91015625,-0.0457402550045487,474.072702876453
5.9140625,-0.0464948825731065,474.07270301255
5.91796875,-0.0442153690948776,474.07141134508
5.921875,-0.040553468181435,474.072587934929
5.92578125,-0.0380401472059849,474.073421826326
5.9296875,-0.0376768115891563,474.071558514928
5.93359375,-0.0388533157395809,474.071692580878
5.9375,-0.0404715836644677,474.071069209478
5.94140625,-0.0415064131542529,474.07055255232
5.9453125,-0.0417622795949482,474.070323590926
5.94921875,-0.0418639480098715,474.07164789248
5.953125,-0.0422244409683491,474.072484300065
5.95703125,-0.0430554880079357,474.072009480765
5.9609375,-0.0441467375799653,474.071047884698
5.96484375,-0.0433813640244174,474.072838089795
5.96875,-0.0369260092459783,474.07237077601
5.97265625,-0.0227653873171836,474.07137404653
5.9765625,-0.00472798684165878,474.070398272089
5.98046875,0.0093259857833092,474.074628600852
5.984375,0.0147652993002442,474.070729302834
5.98828125,0.0135247009285886,474.070323732124
5.9921875,0.0102834150626111,474.070524117973
5.99609375,0.00738484094942794,474.071712568963
6,0.0039084884434641,474.07298727673
6.00390625,-0.00138169966836801,474.069403912303
6.0078125,-0.00724037432841364,474.071173838833
6.01171875,-0.0103444320589618,474.071255062716
6.015625,-0.00881030797861664,474.073413335304
6.01953125,-0.00441384348997897,474.07098474228
6.0234375,-0.000375604281969748,474.071038971403
6.02734375,0.00157222381016091,474.07154667591
6.03125,0.00160332193432322,474.069611828401
6.03515625,0.00113679031324597,474.072543471598
6.0390625,0.00161547835776666,474.072492317175
6.04296875,0.00300848479440315,474.071123193846
6.046875,0.00397476013843703,474.072623032586
6.05078125,0.00332182399652818,474.07076545914
6.0546875,0.00103750314102412,474.071114465454
6.05859375,-0.00186984472372758,474.069753156469
6.0625,-0.00435391664608843,474.070965712575
6.06640625,-0.00563202626980754,474.0704959564
6.0703125,-0.00493649575608148,474.069461654729
6.07421875,-0.00205046587000918,474.071394659316
6.078125,0.0016501989102371,474.070472135796
6.08203125,0.00342647475474522,474.07068247447
6.0859375,0.00140161614166558,474.070396630582
6.08984375,-0.00358691706691048,474.071385689396
6.09375,-0.00910854245898765,474.071612260658
6.09765625,-0.0138226506516864,474.071836790326
6.1015625,-0.0180812934477119,474.070187464179
6.10546875,-0.0223963182001058,474.070311847594
6.109375,-0.0264148878207681,474.072117009227
6.11328125,-0.0292857290172046,474.071090610091
6.1171875,-0.0308700599610461,474.070047857231
6.12109375,-0.0321160001014397,474.069890592833
6.125,-0.0338006009255714,474.072688159887
6.12890625,-0.0357345108088734,474.071516535661
6.1328125,-0.037041284240762,474.070829810917
6.13671875,-0.0366115730878945,474.074542329978
6.140625,-0.0343195927397508,474.074794105617
6.14453125,-0.031717942105902,474.070848915075
6.1484375,-0.0305219309365409,474.07205342132
6.15234375,-0.0308072293102382,474.074496343459
6.15625,-0.0311734331878733,474.07337977804
6.16015625,-0.0305039684639376,474.073013647684
6.1640625,-0.0291068573540686,474.071914490607
6.16796875,-0.0276566418634522,474.07341616167
6.171875,-0.0258316898169459,474.073018901276
6.17578125,-0.023580866727951,474.071844333467
6.1796875,-0.0224057849064585,474.067816644664
6.18359375,-0.023139471675338,474.071561333814
6.1875,-0.0239507119092127,474.072158910168
6.19140625,-0.0225458283531324,474.075141005692
6.1953125,-0.0192482023674971,474.073795460534
6.19921875,-0.0161127858860583,474.070911718863
6.203125,-0.0140851497433134,474.072262920693
6.20703125,-0.0125746409517331,474.070979087224
6.2109375,-0.0105579705562562,474.071038329224
6.21484375,-0.0077579708742381,474.073196453246
6.21875,-0.00589717596984487,474.072868163572
6.22265625,-0.0076116075367416,474.072169234185
6.2265625,-0.0125717365050119,474.070402666527
6.23046875,-0.0153416734686608,474.070461260793
6.234375,-0.00795173621114014,474.074627884119
6.23828125,0.0144367527210385,474.071700553256
6.2421875,0.0493142832813568,474.070556627089
6.24609375,0.0890016365498198,474.070323530987
6.25,0.127332474933771,474.07247488958
6.25390625,0.161818991972021,474.069991866084
6.2578125,0.187990592973584,474.069746491567
6.26171875,0.195439156423533,474.071610968702
6.265625,0.174846731299168,474.070114888059
6.26953125,0.129351635195085,474.074285542568
6.2734375,0.076137727208931,474.075153212122
6.27734375,0.0352908466502789,474.074598921701
6.28125,0.0163093650355544,474.074242753764
6.28515625,0.0141520493127707,474.072351593474
6.2890625,0.0170832459427125,474.0734182994
6.29296875,0.0173001826707096,474.071559372111
6.296875,0.0137825977294358,474.074991876567
6.30078125,0.00792865869913646,474.07199357404
6.3046875,0.000540240209612177,474.070759035462
6.30859375,-0.00700558834518704,474.073481245678
6.3125,-0.0121294751416261,474.072315379796
6.31640625,-0.0135904770859866,474.071479574255
6.3203125,-0.0129425396684148,474.072969309161
6.32421875,-0.0123286880941863,474.076366772945
6.328125,-0.0125188738581495,474.071647500303
6.33203125,-0.0133161071082981,474.074776950879
6.3359375,-0.0140528264600001,474.07432677539
6.33984375,-0.0136519138120365,474.07141925105
6.34375,-0.0118056141774611,474.071603875845
6.34765625,-0.00962007519848846,474.07456247286
6.3515625,-0.00772322133461932,474.069772887829
6.35546875,-0.00516812778852677,474.071474900678
6.359375,-0.00148259624452143,474.072986391304
6.36328125,0.00189746875860116,474.069118642187
6.3671875,0.00338113230493304,474.072324311844
6.37109375,0.00334069726819058,474.071266627068
6.375,0.00341458785812954,474.074201035997
6.37890625,0.0039530327937458,474.072989940246
6.3828125,0.00367524485029837,474.07091396889
6.38671875,0.00205312173271149,474.070827998195
6.390625,0.000501856842698736,474.074126846268
6.39453125,0.00105602541358862,474.070344485447
6.3984375,0.00410533895572085,474.07065714044
6.40234375,0.0076017676780241,474.072621066693
6.40625,0.00926861435515435,474.069762287577
6.41015625,0.00923732941405186,474.07354692255
6.4140625,0.0096814147456203,474.073303782415
6.41796875,0.0118696442720802,474.06711156311
6.421875,0.0149345165528601,474.069260145731
6.42578125,0.0180442451387455,474.069930719659
6.4296875,0.0215551818913522,474.07082432481
6.43359375,0.0254577705448451,474.069457036242
6.4375,0.0284957775144203,474.067661382938
6.44140625,0.0296316322836801,474.070809859765
6.4453125,0.0299693731013169,474.06901115527
6.44921875,0.0315300632843477,474.068089938309
6.453125,0.0340936918353837,474.07160109738
6.45703125,0.0356171943613623,474.070400997121
6.4609375,0.0352186769094077,474.067666442791
6.46484375,0.0335777721728036,474.071741995363
6.46875,0.0310990280162244,474.069900987579
6.47265625,0.0275169706153635,474.071252746223
6.4765625,0.0231399180221737,474.068384607181
6.48046875,0.018919927577047,474.067224989136
6.484375,0.0152535717001642,474.071287610217
6.48828125,0.0119241650630679,474.072986732519
6.4921875,0.00902429754648824,474.06876078115
6.49609375,0.00673101901063499,474.069525100323
6.5,0.0045626330497227,474.067880399141
6.50390625,0.00179391617838386,474.070667437682
6.5078125,-0.00198370235518654,474.068030487377
6.51171875,-0.00645209427976147,474.068749685218
6.515625,-0.00992316881457307,474.0729699094
6.51953125,-0.0103106641126008,474.066394658969
6.5234375,-0.00725504551800951,474.071662459412
6.52734375,-0.00246366847011821,474.069757281974
6.53125,0.00172745991264511,474.071251802032
6.53515625,0.00344488884423183,474.069683101213
6.5390625,0.00133643037168276,474.069889014882
6.54296875,-0.00478989858467774,474.06917324425
6.546875,-0.0126821290794565,474.071391827954
6.55078125,-0.0184315668294846,474.071338709247
6.5546875,-0.0193287977470549,474.070013434197
6.55859375,-0.0159267531132393,474.069132073858
6.5625,-0.0115153790685432,474.068378413331
6.56640625,-0.00943536163207684,474.070885220629
6.5703125,-0.0107310731022745,474.070899971831
6.57421875,-0.0137654582472891,474.067713525562
6.578125,-0.0156661341824043,474.067079018268
6.58203125,-0.0150234359660909,474.0698737868
6.5859375,-0.0132307400583364,474.069279727123
6.58984375,-0.0125731906297628,474.068052781507
6.59375,-0.0135789890683601,474.067440010681
6.59765625,-0.014749589524348,474.069589067517
6.6015625,-0.0144700518039906,474.068167826602
6.60546875,-0.0126973568028048,474.071600790882
6.609375,-0.0107387284717059,474.068753322757
6.61328125,-0.00956655457667115,474.069069691807
6.6171875,-0.00878294137209283,474.071105592307
6.62109375,-0.00796896188925932,474.069825818239
6.625,-0.00824913059748642,474.069818147399
6.62890625,-0.0103954225039943,474.071252034579
6.6328125,-0.0124966506593105,474.068536196331
6.63671875,-0.0124217263111682,474.071387730337
6.640625,-0.0110188837843544,474.069827548492
6.64453125,-0.0104790401094163,474.071252011259
6.6484375,-0.0115455253109865,474.070687034853
6.65234375,-0.0133300648732486,474.070683606945
6.65625,-0.0143866976242733,474.071185451123
6.66015625,-0.0142289804392461,474.071188458346
6.6640625,-0.0137832013174733,474.070024365909
6.66796875,-0.0136937954556328,474.068525975575
6.671875,-0.0133556884289991,474.070240537363
6.67578125,-0.0122776583926881,474.067526626643
6.6796875,-0.011057589463556,474.071811636427
6.68359375,-0.0102565753670117,474.070117001821
6.6875,-0.00924175821742867,474.071540426567
6.69140625,-0.00684526427051858,474.070258673244
6.6953125,-0.00316799340965748,474.071397892538
6.69921875,-0.00036034622106472,474.066960138689
6.703125,-0.000643270176585519,474.071879708708
6.70703125,-0.00364269207127369,474.069328932317
6.7109375,-0.00654809251672272,474.073399471332
6.71484375,-0.00683937675966313,474.073025401145
6.71875,-0.00480197234657348,474.070050870546
6.72265625,-0.00304546941089202,474.073905562291
6.7265625,-0.00324038021905698,474.071991713232
6.73046875,-0.00461191992607133,474.070517588096
6.734375,-0.00604537215331046,474.069604873679
6.73828125,-0.00775261110932281,474.073364021195
6.7421875,-0.00980123284333224,474.073927791974
6.74609375,-0.0107662139920964,474.072136986342
6.75,-0.00945699583146055,474.073201295859
6.75390625,-0.00673257608963554,474.070985702423
6.7578125,-0.00460378268935129,474.074505318762
6.76171875,-0.00425438652333707,474.077093381303
6.765625,-0.00518534521408877,474.073421155791
6.76953125,-0.00592886433836358,474.072721419668
6.7734375,-0.00552275681945456,474.072415487034
6.77734375,-0.0045254061277382,474.074278242291
6.78125,-0.00469009704692882,474.074146327852
6.78515625,-0.00768686000586326,474.075722409777
6.7890625,-0.0134476838528552,474.073294993771
6.79296875,-0.0191605360671837,474.074757100242
6.796875,-0.0213589073297003,474.075195076729
6.80078125,-0.0198858663287129,474.077737522947
6.8046875,-0.0182470707942389,474.073841910921
6.80859375,-0.01965814814625,474.073353194731
6.8125,-0.0242824465189803,474.076466770307
6.81640625,-0.0302330960337308,474.078824916784
6.8203125,-0.035609005113319,474.075607901607
6.82421875,-0.0389575210990358,474.075925477624
6.828125,-0.0389452986226042,474.076695750487
6.83203125,-0.035647866369567,474.078031911241
6.8359375,-0.0316053678255339,474.080552668413
6.83984375,-0.0295865237850869,474.074113580544
6.84375,-0.0300787805505848,474.07651537064
6.84765625,-0.0312039832855389,474.077747591616
6.8515625,-0.0301522926866977,474.077608178018
6.85546875,-0.0257933706802054,474.079542457983
6.859375,-0.0201109914962584,474.077619394097
6.86328125,-0.0159790677895936,474.078283558899
6.8671875,-0.0148705023924318,474.079732401442
6.87109375,-0.0170672077780506,474.080249147104
6.875,-0.021051901601718,474.08095827598
6.87890625,-0.0237179397798998,474.082002115842
6.8828125,-0.0236243304878351,474.079784911213
6.88671875,-0.0217766145281342,474.0826426263
6.890625,-0.0195328271186864,474.083806219271
6.89453125,-0.0180455044896083,474.08180299752
6.8984375,-0.0183793700106899,474.081790337776
6.90234375,-0.0211630176152285,474.084112272163
6.90625,-0.0264818153058213,474.084817469107
6.91015625,-0.0331176558515415,474.084550660565
6.9140625,-0.0372351119127337,474.08374173607
6.91796875,-0.0334095923759479,474.086675975013
6.921875,-0.0180013346597337,474.083926649915
6.92578125,0.00931660944257012,474.083522208102
6.9296875,0.04678267352733,474.084094584478
6.93359375,0.0917046500824031,474.08266491199
6.9375,0.140307235090252,474.084309095668
6.94140625,0.186115156769786,474.085768880201
6.9453125,0.217805052484573,474.086978448266
6.94921875,0.221476312503793,474.085908124662
6.953125,0.189688405723453,474.086372033355
6.95703125,0.129955967756163,474.087697579331
6.9609375,0.0638698372424781,474.086056051115
6.96484375,0.0145193488018344,474.090058604819
6.96875,-0.00861912023906409,474.089582689112
6.97265625,-0.011989883901771,474.089579473684
6.9765625,-0.00778881120151722,474.088002928804
6.98046875,-0.00470655645152156,474.089139375039
6.984375,-0.00542679738056331,474.087211894906
6.98828125,-0.00862379670495939,474.090280886127
6.9921875,-0.0119954788800222,474.088150892314
6.99609375,-0.0141885043275736,474.092149993556
7,-0.0149583401243871,474.090169376096
7.00390625,-0.0144603962497318,474.091185149978
7.0078125,-0.0131178919522442,474.092315428324
7.01171875,-0.0111926471672249,474.088737162852
7.015625,-0.0082627796888622,474.092044359057
7.01953125,-0.00457086864437891,474.092591496113
7.0234375,-0.00204646166210746,474.092876025874
7.02734375,-0.00241233579540687,474.09411621377
7.03125,-0.004928494492749,474.091973449437
7.03515625,-0.00688574117471825,474.092292420162
7.0390625,-0.00634983776666355,474.093886731443
7.04296875,-0.00383161264216156,474.096275948498
7.046875,-0.00137728961187803,474.094352099798
7.05078125,-0.00105492625561894,474.098065561881
7.0546875,-0.00366556200823192,474.091712632857
7.05859375,-0.00818284993518441,474.096901728074
7.0625,-0.0129449949518294,474.096505957039
7.06640625,-0.0165776165181113,474.097864550131
7.0703125,-0.017391533711145,474.097607956217
7.07421875,-0.0139316720765729,474.095935917029
7.078125,-0.0070855092182314,474.099508747835
7.08203125,-0.000281827739558497,474.097740974491
7.0859375,0.0032032628485629,474.098230777245
7.08984375,0.0034718834617458,474.095818932631
7.09375,0.00381192204066337,474.09384229611
7.09765625,0.00581010759358953,474.096704122801
7.1015625,0.00702100072737783,474.097869775161
7.10546875,0.00545731216613498,474.097228620764
7.109375,0.00353422768127178,474.098872291363
7.11328125,0.00542717168286122,474.09830998181
7.1171875,0.0116871765127121,474.098705525285
7.12109375,0.0184967724156633,474.100648678544
7.125,0.0221123315495632,474.101028781469
7.12890625,0.0225656924713344,474.101477541489
7.1328125,0.0228769997448367,474.097538986913
7.13671875,0.0252484576015779,474.099375660912
7.140625,0.028865919637321,474.098828463236
7.14453125,0.031468306984364,474.098595424915
7.1484375,0.0319193753818461,474.102248584342
7.15234375,0.0308464423143119,474.101699727819
7.15625,0.029687056180076,474.102540646082
7.16015625,0.029537857727133,474.102777050517
7.1640625,0.0299613453054216,474.100628446674
7.16796875,0.02935054136797,474.102333509534
7.171875,0.0274069559226228,474.101949031544
7.17578125,0.0257224761269709,474.097898636605
7.1796875,0.0252214916616978,474.10088240588
7.18359375,0.0244625650786909,474.098681681509
7.1875,0.0211109904616552,474.102320517701
7.19140625,0.0145428785707543,474.100840554196
7.1953125,0.00663341359471194,474.102621455556
7.19921875,-2.33863707453325e-05,474.102137490213
7.203125,-0.00472629829447437,474.102056721148
7.20703125,-0.0087313744122084,474.1023323147
7.2109375,-0.0122894847754985,474.102543048813
7.21484375,-0.0137945959138582,474.105212849261
7.21875,-0.0129843389242044,474.102169942603
7.22265625,-0.0122535709730295,474.100475830901
7.2265625,-0.013876221871362,474.104673695992
7.23046875,-0.0178262732137791,474.106234639173
7.234375,-0.0220341864767187,474.106239569931
7.23828125,-0.0240577202529265,474.105451580295
7.2421875,-0.0230110898143785,474.106162585632
7.24609375,-0.0196308682423288,474.105153637276
7.25,-0.0151261564968163,474.103148419358
7.25390625,-0.0109955187528041,474.105684745988
7.2578125,-0.00867064544133149,474.106166166933
7.26171875,-0.00882494057153206,474.105203403948
7.265625,-0.0118598099196765,474.104367809629
7.26953125,-0.0172091255990063,474.105245906744
7.2734375,-0.02178927966724,474.106667043217
7.27734375,-0.0226533827923867,474.108538782477
7.28125,-0.0207663894526755,474.106828302848
7.28515625,-0.018942972363796,474.109108755232
7.2890625,-0.0174885596258373,474.108909543738
7.29296875,-0.0147094666577897,474.109250406308
7.296875,-0.0107979343779304,474.109627635353
7.30078125,-0.00824763990147244,474.107981814864
7.3046875,-0.00792961819673965,474.111296681955
7.30859375,-0.00767821712113591,474.113443652309
7.3125,-0.00565581781822024,474.111589406052
7.31640625,-0.00291962912887025,474.112006337809
7.3203125,-0.00218764919153967,474.110505114512
7.32421875,-0.0046842955258385,474.113073350122
7.328125,-0.00827788686248274,474.11029768329
7.33203125,-0.00931577832741663,474.11232399353
7.3359375,-0.00650673740223802,474.112801281273
7.33984375,-0.00239961828171901,474.110868750995
7.34375,-0.00077534685586395,474.112825273477
7.34765625,-0.00283124413354114,474.113377959055
7.3515625,-0.00630118554943039,474.112806617605
7.35546875,-0.0083969067678213,474.113203749625
7.359375,-0.0088925159369404,474.114526069777
7.36328125,-0.00978892080695113,474.113602458993
7.3671875,-0.01241513743602,474.114377988327
7.37109375,-0.0156702503783546,474.114455321343
7.375,-0.0173469572681049,474.115336202984
7.37890625,-0.0165478425057892,474.117407331692
7.3828125,-0.0144192337249208,474.116690166067
7.38671875,-0.0127132813117759,474.112181548806
7.390625,-0.0122867409969243,474.116972980728
7.39453125,-0.0134503311969175,474.117671052634
7.3984375,-0.0164148793874786,474.118576337352
7.40234375,-0.0200524439821278,474.121655764524
7.40625,-0.0219059980173995,474.117591309404
7.41015625,-0.0211747621448869,474.119903292532
7.4140625,-0.0196491020814791,474.120214970367
7.41796875,-0.0187589355119607,474.120661665384
7.421875,-0.0180379132027812,474.118372124624
7.42578125,-0.0166216562413933,474.118421303877
7.4296875,-0.0146909407080802,474.12344161233
7.43359375,-0.0131713082463429,474.121015341772
7.4375,-0.0132737707099287,474.118224437472
7.44140625,-0.0162611492829135,474.121042907866
7.4453125,-0.0216935181709969,474.121528048597
7.44921875,-0.0269839128002701,474.121099670537
7.453125,-0.0298195482400959,474.121311467619
7.45703125,-0.0299437022372018,474.121098148185
7.4609375,-0.0289441710821503,474.122385678419
7.46484375,-0.0283260297495823,474.121320622046
7.46875,-0.0278676730680517,474.122888471642
7.47265625,-0.0267927217680572,474.121467410454
7.4765625,-0.0255013155060011,474.123462357848
7.48046875,-0.0250955628880599,474.123046970103
7.484375,-0.026166377808859,474.125120643444
7.48828125,-0.0284718752821461,474.123058737676
7.4921875,-0.0313499770556208,474.123794642789
7.49609375,-0.0342460540090452,474.124652102528
7.5,-0.0365133862685328,474.12593022819
7.50390625,-0.0371302337522146,474.127579619346
7.5078125,-0.0355177943007702,474.125797347659
7.51171875,-0.0325648431248187,474.126048958332
7.515625,-0.0302615960190948,474.127721142437
7.51953125,-0.0298389751410209,474.125010722617
7.5234375,-0.0303619849230087,474.124991193413
7.52734375,-0.0294288124757637,474.127071922649
7.53125,-0.0252100159244155,474.128304067812
7.53515625,-0.0183431643055923,474.127472328864
7.5390625,-0.0118824357875304,474.127084108412
7.54296875,-0.00859274743643246,474.129302480337
7.546875,-0.00884232501159771,474.126812310844
7.55078125,-0.0112659330292027,474.130302827048
7.5546875,-0.0140178604025439,474.12948005576
7.55859375,-0.0155530472884027,474.129329744627
7.5625,-0.0153343260815671,474.128601897803
7.56640625,-0.0142279347911084,474.128727945588
7.5703125,-0.0144612261581785,474.132823523078
7.57421875,-0.0179746821380567,474.132318186077
7.578125,-0.0231357201855189,474.130626624321
7.58203125,-0.0233279615335968,474.131690700156
7.5859375,-0.0105948006575499,474.13073992876
7.58984375,0.0178738967423032,474.129755698145
7.59375,0.0579310046230143,474.131970821869
7.59765625,0.103574608259495,474.130483390756
7.6015625,0.150467582302007,474.133007390676
7.60546875,0.192039839515697,474.133643848098
7.609375,0.214126128641279,474.129851055277
7.61328125,0.199196641032263,474.132916945252
7.6171875,0.142499250586044,474.135581487722
7.62109375,0.0639546006538107,474.134504110126
7.625,-0.00252712368971215,474.133115647927
7.62890625,-0.0341060506775149,474.132422347946
7.6328125,-0.0317439644567871,474.135355164335
7.63671875,-0.0118499402623162,474.130651441202
7.640625,0.00826625229150712,474.134912373625
7.64453125,0.018416114005578,474.133512080461
7.6484375,0.0171065788893465,474.133787920252
7.65234375,0.00945899534171013,474.13328887695
7.65625,0.00220556713036296,474.133753384702
7.66015625,-0.00132008319871227,474.135031036518
7.6640625,-0.00218889842132586,474.136021538801
7.66796875,-0.00320013005332031,474.135453064178
7.671875,-0.00599240097075788,474.135806791108
7.67578125,-0.00993202369481922,474.134162842964
7.6796875,-0.0129054547941242,474.136155188592
7.68359375,-0.0137971490231277,474.135746116074
7.6875,-0.0137646737126743,474.135665427688
7.69140625,-0.0135931258769636,474.137437366279
7.6953125,-0.0122845210711953,474.137667948233
7.69921875,-0.0101078862956648,474.138616101704
7.703125,-0.00921109205093193,474.13482799494
7.70703125,-0.00963358424223505,474.135531524722
7.7109375,-0.00850128452001249,474.138244767342
7.71484375,-0.00454844002869264,474.137795745914
7.71875,-0.000292449969118366,474.136108338882
7.72265625,0.00115328249061853,474.138675016287
7.7265625,-0.000516143030272096,474.137292963336
7.73046875,-0.00276414342627075,474.136820735522
7.734375,-0.00295017104948611,474.137892927896
7.73828125,-0.000963747955490006,474.13496599679
7.7421875,0.00123897811725409,474.137163098417
7.74609375,0.00220627636206271,474.134960628443
7.75,0.00210220442584818,474.139789059975
7.75390625,0.00207731657661322,474.141213902893
7.7578125,0.00310638198651231,474.13799731492
7.76171875,0.00481683141457232,474.138651583671
7.765625,0.00627934928040615,474.13962073402
7.76953125,0.00814523019439748,474.139703794221
7.7734375,0.0119655749483489,474.138753933943
7.77734375,0.0172455540859709,474.137436379347
7.78125,0.0215406222734689,474.136893263369
7.78515625,0.0235783870373114,474.139110222709
7.7890625,0.024515992098393,474.137337550004
7.79296875,0.0261815556761808,474.137753467769
7.796875,0.0288998117111737,474.13546603411
7.80078125,0.0313373988332202,474.134227623543
7.8046875,0.0322789489872214,474.137944817777
7.80859375,0.0316648956103217,474.133821562725
7.8125,0.0303114300758939,474.138604536992
7.81640625,0.029659048692868,474.139341329628
7.8203125,0.030546908412877,474.133903569253
7.82421875,0.0318038439286201,474.134830408618
7.828125,0.0314732479453642,474.135410869157
7.83203125,0.0286021967240181,474.136595943576
7.8359375,0.0230424135350961,474.134383977579
7.83984375,0.0149031754467018,474.138804597118
7.84375,0.00473426721532147,474.135045120748
7.84765625,-0.00566328723811577,474.137521148409
7.8515625,-0.0132870625406589,474.137197280084
7.85546875,-0.0168140001185237,474.136892658906
7.859375,-0.0182647417793886,474.137964834682
7.86328125,-0.0196901103800911,474.136183800746
7.8671875,-0.0201219320976257,474.137172045947
7.87109375,-0.0171269347836661,474.136787002852
7.875,-0.0102493124024258,474.131949827878
7.87890625,-0.00241591010087468,474.136280646883
7.8828125,0.0023759571655117,474.136182061001
7.88671875,0.00266656455565326,474.135572539904
7.890625,0.00028878309794303,474.133203828943
7.89453125,-0.00220113724010419,474.132494258354
7.8984375,-0.00386823583544749,474.132688570966
7.90234375,-0.00502561965449957,474.134569938042
7.90625,-0.00607888017970302,474.134386403235
7.91015625,-0.00694974188125004,474.132791586038
7.9140625,-0.0066918562546181,474.131272993696
7.91796875,-0.00470654880856025,474.133627458246
7.921875,-0.00223118228524865,474.131641971654
7.92578125,-0.00100309663698528,474.132308543845
7.9296875,-0.00123281387822509,474.133017795049
7.93359375,-0.00200302538433147,474.134788921029
7.9375,-0.00275194026457174,474.132609827289
7.94140625,-0.00353959170824829,474.130506074044
7.9453125,-0.00432070452787224,474.130184904125
7.94921875,-0.00471349816397472,474.133404251907
7.953125,-0.0046018625076099,474.130566936751
7.95703125,-0.00476868829956089,474.130616121009
7.9609375,-0.00647341162045333,474.130044193084
7.96484375,-0.00970645500019323,474.131542485336
7.96875,-0.012609889202455,474.130552409692
7.97265625,-0.0136230915316327,474.13090235679
7.9765625,-0.0130632637969115,474.129044619366
7.98046875,-0.0119312142759104,474.133037337931
7.984375,-0.0106483724582984,474.13092206799
7.98828125,-0.00947371142285462,474.131763865281
7.9921875,-0.00853012428142808,474.12940920617
7.99609375,-0.00718425003559031,474.131680434502
8,-0.00488593073019328,474.130625151991
8.00390625,-0.00229994208348715,474.132405601954
8.0078125,-0.000876905278061999,474.127983195864
8.01171875,-0.00167345122029753,474.13030951484
8.015625,-0.00432775524108653,474.129970416313
8.01953125,-0.00735080940013062,474.131613362894
8.0234375,-0.00968707511580135,474.128830490223
8.02734375,-0.0109840918790545,474.127807668972
8.03125,-0.0107026514650351,474.128877249791
8.03515625,-0.00870458898282413,474.123161527514
8.0390625,-0.00641959247299698,474.124531855648
8.04296875,-0.0059115350721382,474.126996607916
8.046875,-0.00752873303977939,474.126239488536
8.05078125,-0.00948709181581323,474.126001726848
8.0546875,-0.0105731232136421,474.129292265897
8.05859375,-0.0117956993009303,474.126742682323
8.0625,-0.0142389448072807,474.127866915299
8.06640625,-0.017129926643689,474.124226999652
8.0703125,-0.0189251982468987,474.127918398477
8.07421875,-0.0191777292337504,474.127751443731
8.078125,-0.0186504867592755,474.126231376251
8.08203125,-0.0180603418456828,474.124636103143
8.0859375,-0.0179008636350151,474.123195228745
8.08984375,-0.0188335606121879,474.12338519951
8.09375,-0.020795686258417,474.124758442207
8.09765625,-0.0225742324905917,474.124840500866
8.1015625,-0.0229618577016026,474.12558237004
8.10546875,-0.0218216137058154,474.127431819264
8.109375,-0.019832750821438,474.124522967351
8.11328125,-0.0177136187463516,474.124342532403
8.1171875,-0.0163128593705044,474.1275819335
8.12109375,-0.0169641836498642,474.128306433736
8.125,-0.0208172675550029,474.124302355037
8.12890625,-0.0272193806579483,474.126725225952
8.1328125,-0.0331012176299091,474.127440828993
8.13671875,-0.0355752973121461,474.124009307864
8.140625,-0.035409090677438,474.124839995842
8.14453125,-0.0359215005559096,474.124716960351
8.1484375,-0.0384618288761226,474.12126801746
8.15234375,-0.0414023767816078,474.122385520748
8.15625,-0.0434690823144256,474.122251733273
8.16015625,-0.045457454848323,474.126399860854
8.1640625,-0.047960345145569,474.122602824793
8.16796875,-0.0496872243313381,474.120958817745
8.171875,-0.0493408774597028,474.123670830677
8.17578125,-0.0477119935947437,474.122151420546
8.1796875,-0.0465747114809255,474.121675299375
8.18359375,-0.0459318815623438,474.124391995475
8.1875,-0.0433656850714474,474.119835872158
8.19140625,-0.0365480913375105,474.121227123838
8.1953125,-0.0264585151247448,474.122812198434
8.19921875,-0.017136183279115,474.124620918324
8.203125,-0.0117226195087151,474.122922429184
8.20703125,-0.0102662717842282,474.121289558887
8.2109375,-0.011310256577976,474.120709374765
8.21484375,-0.0132708287488083,474.118586998928
8.21875,-0.0143510452872348,474.120503785807
8.22265625,-0.0134822975516059,474.120305054363
8.2265625,-0.0112011377689389,474.120911747788
8.23046875,-0.0087721298935084,474.121812755995
8.234375,-0.00777948459387343,474.118455869349
8.23828125,-0.0102687455293159,474.119459828787
8.2421875,-0.0170477245750382,474.120227580265
8.24609375,-0.0242576729847994,474.118800566613
8.25,-0.0227772668828053,474.122293698068
8.25390625,-0.00483919435155403,474.119731827317
8.2578125,0.028381228247453,474.116999867391
8.26171875,0.0684833726470453,474.119131548465
8.265625,0.108837407302929,474.113999287452
8.26953125,0.149800656428505,474.116817673625
8.2734375,0.192158053677659,474.115131420551
8.27734375,0.224866913228352,474.115038629668
8.28125,0.226659886238957,474.118591395827
8.28515625,0.185553508156195,474.122016802033
8.2890625,0.114444960269963,474.118529442669
8.29296875,0.0446908460698037,474.119573133751
8.296875,0.00272731471910785,474.118783584053
8.30078125,-0.00785142537450414,474.116495973993
8.3046875,-0.00216560134304303,474.117267609908
8.30859375,0.00376252696292154,474.117209337618
8.3125,0.00439007582651002,474.115199033798
8.31640625,0.00225087120261126,474.116613113022
8.3203125,0.000335037222239629,474.115604214633
8.32421875,-0.00108635389746495,474.114467490756
8.328125,-0.002964721257978,474.117751433091
8.33203125,-0.00578503285224198,474.114346052065
8.3359375,-0.00913178619329203,474.117178004795
8.33984375,-0.0117634899526453,474.112767798221
8.34375,-0.0123061268113648,474.11737925218
8.34765625,-0.0106070660692478,474.115102997324
8.3515625,-0.0079522145720746,474.11446371806
8.35546875,-0.00545662295596518,474.114747511356
8.359375,-0.00348984317182626,474.109243064309
8.36328125,-0.00288329329948997,474.114797275116
8.3671875,-0.00436420036769094,474.118053077368
8.37109375,-0.00647590043961353,474.114166005891
8.375,-0.00671924341143574,474.113770001686
8.37890625,-0.00493679946054312,474.112093720245
8.3828125,-0.00342809222071464,474.112510511125
8.38671875,-0.00369737526636366,474.108580837484
8.390625,-0.00472640093546753,474.11188539
8.39453125,-0.00490643995429874,474.113373472323
8.3984375,-0.00408647032233607,474.110233020617
8.40234375,-0.00302422768352414,474.111366442347
8.40625,-0.0020241822479089,474.112508186528
8.41015625,-0.000312977704417784,474.109796694132
8.4140625,0.00328666933600657,474.112120268969
8.41796875,0.00853948519710281,474.112297319584
8.421875,0.0134896368204254,474.110009443369
8.42578125,0.0168595399422409,474.110204426594
8.4296875,0.0196030580049267,474.107345833287
8.43359375,0.0228872241087993,474.10939516538
8.4375,0.0259475536243728,474.107124624947
8.44140625,0.0273889255617182,474.107248048017
8.4453125,0.0270690211696845,474.106550344923
8.44921875,0.0256699739236584,474.106331270821
8.453125,0.0241968510307223,474.104594431726
8.45703125,0.0240334790272629,474.105081318463
8.4609375,0.0257163581746745,474.104401698166
8.46484375,0.0282695848024716,474.103818591686
8.46875,0.0307492627641217,474.103213780108
8.47265625,0.0334065630844007,474.103925512574
8.4765625,0.0363354985713192,474.102853772651
8.48046875,0.0379186928506592,474.101129331055
8.484375,0.0366359558190089,474.102058888094
8.48828125,0.0338208092152969,474.103743331657
8.4921875,0.0323270549964165,474.104218380207
8.49609375,0.03249122508883,474.101717580437
8.5,0.0313746828478664,474.101695907318
8.50390625,0.0269434678371396,474.101481400356
8.5078125,0.0208234881522958,474.102337554463
8.51171875,0.0156374208576457,474.101885331994
8.515625,0.0120839892084651,474.099406762345
8.51953125,0.00920261698356627,474.101747502223
8.5234375,0.00601319803245871,474.100842229614
8.52734375,0.00297406706253048,474.097536502456
8.53125,0.0013790535100872,474.099533885182
8.53515625,0.00114453144511267,474.100322393709
8.5390625,0.000566945743637278,474.097608667312
8.54296875,-0.00206658785639409,474.098871917073
8.546875,-0.00737172892384201,474.097381732377
8.55078125,-0.0139432595666961,474.099013034478
8.5546875,-0.0185795570226659,474.096708762755
8.55859375,-0.0192733269756943,474.096144560165
8.5625,-0.0175507790309777,474.100432261929
8.56640625,-0.0165965823966887,474.098002637807
8.5703125,-0.017814627342842,474.096008419822
8.57421875,-0.0201064598737489,474.097857140873
8.578125,-0.021757500955202,474.095085197651
8.58203125,-0.0217249919900517,474.096258044077
8.5859375,-0.0195373436465288,474.096502311869
8.58984375,-0.0156402697547191,474.094572851779
8.59375,-0.0115662230539247,474.095353036426
8.59765625,-0.00885662449851484,474.097569593497
8.6015625,-0.00797916166479512,474.096775660463
8.60546875,-0.00814387504172864,474.095572844769
8.609375,-0.00847662208044749,474.096065996891
8.61328125,-0.00916349126686026,474.094068708197
8.6171875,-0.0104465560664236,474.095194828855
8.62109375,-0.011779825939785,474.093131799765
8.625,-0.0130379898596673,474.09497212953
8.62890625,-0.0145665821467729,474.092415016716
8.6328125,-0.0157940225774413,474.095323183281
8.63671875,-0.0158545745048843,474.094694628642
8.640625,-0.0152762435253142,474.090621199504
8.64453125,-0.0155386990742032,474.092876714619
8.6484375,-0.0168590950010945,474.092468155676
8.65234375,-0.017619856081886,474.095752671313
8.65625,-0.0165980033759614,474.09180540322
8.66015625,-0.0146177520623306,474.091480855865
8.6640625,-0.0135144481295463,474.089237152659
8.66796875,-0.0142499031462483,474.091578600234
8.671875,-0.0161297200846811,474.092675901413
8.67578125,-0.0172797343501613,474.089964362557
8.6796875,-0.0161565534179028,474.094085998692
8.68359375,-0.0132460427261555,474.088646208827
8.6875,-0.0106775657921405,474.088282253688
8.69140625,-0.00972807889273408,474.091374802337
8.6953125,-0.00979220587476881,474.093535437621
8.69921875,-0.00996463803750853,474.087327418076
8.703125,-0.00985662364029072,474.090363336975
8.70703125,-0.00857842743378285,474.091091381643
8.7109375,-0.00538456068151099,474.090702064379
8.71484375,-0.00175691642955769,474.088014425612
8.71875,-0.0005201562411312,474.090280064102
8.72265625,-0.00302044305030326,474.089508226418
8.7265625,-0.00811102768136045,474.086715260831
8.73046875,-0.0129288996880256,474.087909694566
8.734375,-0.0149022100793537,474.087420347233
8.73828125,-0.0137364763200039,474.091346981162
8.7421875,-0.0109337136501873,474.089978528977
8.74609375,-0.00778648381822556,474.087290854872
8.75,-0.00495073103370178,474.084045410356
8.75390625,-0.00334562669567113,474.084481133803
8.7578125,-0.00361496413448027,474.089107890699
8.76171875,-0.00475165211472838,474.086287835016
8.765625,-0.00507244950132089,474.086799211829
8.76953125,-0.00433920685797069,474.087698548932
8.7734375,-0.00389807472905355,474.087704311336
8.77734375,-0.00552698673971693,474.086542220328
8.78125,-0.00953417463844672,474.085545995733
8.78515625,-0.0134466241307501,474.08632683103
8.7890625,-0.0143944496352223,474.08607228286
8.79296875,-0.0121783010481558,474.084543240291
8.796875,-0.00908805726912223,474.088318786985
8.80078125,-0.00802507476453716,474.084494110239
8.8046875,-0.0104375527868348,474.086031114013
8.80859375,-0.0151965403069348,474.085589377514
8.8125,-0.0195250471186332,474.082036157873
8.81640625,-0.0213407726113813,474.085365588581
8.8203125,-0.0210428660782241,474.082895124005
8.82421875,-0.0211358062318874,474.083300955672
8.828125,-0.0237679134432549,474.08330489198
8.83203125,-0.0282188920878114,474.08409099845
8.8359375,-0.0318803705420539,474.081096735851
8.83984375,-0.0335070131282467,474.081941276034
8.84375,-0.0337174671362727,474.08338806734
8.84765625,-0.0332326655581893,474.0842382817
8.8515625,-0.0321764275493666,474.07974032249
8.85546875,-0.0305078453892854,474.080909416104
8.859375,-0.0285301317165827,474.08270767505
8.86328125,-0.0274891254474643,474.084163582802
8.8671875,-0.0294183367026786,474.085604426067
8.87109375,-0.0345540704445302,474.080682055523
8.875,-0.0394880123838542,474.081851208902
8.87890625,-0.0409569988943485,474.080018693062
8.8828125,-0.0398231465072161,474.078409428412
8.88671875,-0.0382717202851438,474.082187916157
8.890625,-0.0362432249138944,474.081420982081
8.89453125,-0.0327732158953673,474.079853694516
8.8984375,-0.0278275743689484,474.081915305465
8.90234375,-0.0222946666730921,474.079433587644
8.90625,-0.0178510730399176,474.07947517816
8.91015625,-0.0156621494859448,474.080197396549
8.9140625,-0.0147919069835534,474.078059996598
8.91796875,-0.0140897308492146,474.080540908305
8.921875,-0.0152503102568654,474.078492102129
8.92578125,-0.0211551745944801,474.080044732338
8.9296875,-0.0306185262536901,474.079201986237
8.93359375,-0.0365319655290281,474.08020085422
8.9375,-0.030601420621657,474.081851641017
8.94140625,-0.00958569525682518,474.075932005059
8.9453125,0.0235477183312003,474.078805862393
8.94921875,0.0631880177198059,474.077904485721
8.953125,0.104928218136669,474.079682015044
8.95703125,0.145852186281567,474.076909115096
8.9609375,0.179976379262901,474.074161216225
8.96484375,0.195588295819447,474.079146925984
8.96875,0.182190134939985,474.076836163291
8.97265625,0.141572269044843,474.080815048878
8.9765625,0.0900914755183967,474.077065997944
8.98046875,0.0476150818457791,474.07920753715
8.984375,0.0235764324523421,474.081345298815
8.98828125,0.0140602353029043,474.077576007045
8.9921875,0.0100827069814927,474.076529619203
8.99609375,0.00591171379993489,474.079526164504
9,0.000344375648905956,474.079031095464
9.00390625,-0.00581190160649767,474.076393305918
9.0078125,-0.0114036908500612,474.075519455769
9.01171875,-0.0157723831567843,474.078016293189
9.015625,-0.0189363502405281,474.07539663892
9.01953125,-0.0210365910420241,474.075632864738
9.0234375,-0.0222050346426494,474.07703000342
9.02734375,-0.0226360272840086,474.078106269496
9.03125,-0.0218837889881532,474.075683140566
9.03515625,-0.0189957701974259,474.077303142426
9.0390625,-0.0147395548739741,474.075206989872
9.04296875,-0.0121910263854848,474.07479603984
9.046875,-0.0131538450349612,474.077009165686
9.05078125,-0.0153977289315886,474.074101288923
9.0546875,-0.0154308221836618,474.076145030383
9.05859375,-0.0128169969338354,474.076164850732
9.0625,-0.00984820890980728,474.075457148196
9.06640625,-0.00813130034796683,474.07537847564
9.0703125,-0.00723623080612905,474.074656739707
9.07421875,-0.00620036605663005,474.076507648719
9.078125,-0.00522312083690698,474.076096847415
9.08203125,-0.00537013061238623,474.07845008936
9.0859375,-0.00672535672250229,474.074686679408
9.08984375,-0.00747401100977995,474.076293273436
9.09375,-0.00566707497195618,474.075413978546
9.09765625,-0.00173333668930539,474.074880892522
9.1015625,0.00186364482941838,474.07472309483
9.10546875,0.00358022484677854,474.076579658277
9.109375,0.00419436360472011,474.072740240197
9.11328125,0.00492629404149245,474.075203140527
9.1171875,0.00564365245450454,474.073132606873
9.12109375,0.00565367436169294,474.070555534181
9.125,0.00531948605261971,474.074110901685
9.12890625,0.00611366538484834,474.070931123236
9.1328125,0.00920357663117849,474.071971411189
9.13671875,0.0144144037526466,474.071981796262
9.140625,0.0205540392639396,474.073553210163
9.14453125,0.0262777368987791,474.071568493147
9.1484375,0.0307499581138303,474.074763318371
9.15234375,0.0339637221549503,474.072480217859
9.15625,0.0361267887919958,474.071953661646
9.16015625,0.0368788886911473,474.069835749211
9.1640625,0.0358421405479192,474.073389395328
9.16796875,0.0337001507106213,474.072281430866
9.171875,0.0322910143655698,474.073055956383
9.17578125,0.0331134107621149,474.070349475512
9.1796875,0.0357067906099194,474.073822749483
9.18359375,0.0382080070322992,474.071071446096
9.1875,0.0385695325614529,474.071499678992
9.19140625,0.0352656870677564,474.074551533105
9.1953125,0.0285988904729839,474.06986432812
9.19921875,0.0203845081068648,474.070479964616
9.203125,0.0122625964924262,474.07225668937
9.20703125,0.00615013752996027,474.071404476723
9.2109375,0.00390275753738442,474.069614748542
9.21484375,0.00454162760369453,474.070280742062
9.21875,0.00493395858857471,474.070934473478
9.22265625,0.0037651868167913,474.071616929633
9.2265625,0.00206489252044432,474.070335671905
9.23046875,0.00046140722645838,474.07064637382
9.234375,-0.001224947316573,474.074113728875
9.23828125,-0.00237902076441588,474.067432201895
9.2421875,-0.00268853820774193,474.072793634458
9.24609375,-0.00344438594991345,474.07217656481
9.25,-0.00524408165038593,474.071196775052
9.25390625,-0.00716752454403423,474.068755115125
9.2578125,-0.00909704260919122,474.071021587412
9.26171875,-0.0115495291215356,474.070390583891
9.265625,-0.0135895753937703,474.067248480068
9.26953125,-0.0133884125300692,474.070693397634
9.2734375,-0.0106038332484779,474.071043092306
9.27734375,-0.00742195428950601,474.069901629047
9.28125,-0.00691686466875953,474.070289726085
9.28515625,-0.00986108152785696,474.071110326371
9.2890625,-0.0136589149804521,474.068402751439
9.29296875,-0.0150517740164223,474.072945958138
9.296875,-0.0131854122955675,474.069063946218
9.30078125,-0.00983983365294341,474.070524391106
9.3046875,-0.00741765612483236,474.067898357868
9.30859375,-0.00671708303809201,474.066865919389
9.3125,-0.00660928813984382,474.069056983061
9.31640625,-0.00586537642112171,474.070493018533
9.3203125,-0.00449758110996043,474.071041600396
9.32421875,-0.00338831407881644,474.069259038349
9.328125,-0.00328848254043576,474.070026636672
9.33203125,-0.00406167609908192,474.069963106709
9.3359375,-0.00513255159804081,474.070533635267
9.33984375,-0.00636980966972954,474.070020910454
9.34375,-0.00768799687193767,474.065817659585
9.34765625,-0.00862688346962546,474.068635499444
9.3515625,-0.00884286937102485,474.068092979954
9.35546875,-0.00839672338880939,474.069443877425
9.359375,-0.00802682444732516,474.068315097894
9.36328125,-0.00888819404746932,474.068446395546
9.3671875,-0.0106379389911059,474.065805996224
9.37109375,-0.0110777277374155,474.068492577503
9.375,-0.00941998988940396,474.066520727638
9.37890625,-0.00800099516762781,474.070955409046
9.3828125,-0.00913816714933888,474.072551513352
9.38671875,-0.0117946114229713,474.070460161364
9.390625,-0.0129299663607629,474.068221444403
9.39453125,-0.0114676473380132,474.067585181174
9.3984375,-0.00931235461230241,474.068938940563
9.40234375,-0.0084521584736088,474.066739390972
9.40625,-0.00864002250901312,474.067930659304
9.41015625,-0.0086191702763458,474.066515053354
9.4140625,-0.00834316855776511,474.068420942014
9.41796875,-0.00921302917472289,474.068519689012
9.421875,-0.0124195022100018,474.067948797433
9.42578125,-0.0169735370070253,474.070156188664
9.4296875,-0.019861102909858,474.067893241901
9.43359375,-0.0187351406287522,474.066866191692
9.4375,-0.0142638773417359,474.068229412398
9.44140625,-0.00953479313209904,474.069228419824
9.4453125,-0.00696695751878173,474.069305890039
9.44921875,-0.00625141227182192,474.070456017453
9.453125,-0.00575491864639341,474.064755990036
9.45703125,-0.0052393243235132,474.069694851011
9.4609375,-0.00624814324788227,474.067747090069
9.46484375,-0.00967069908114776,474.068356722833
9.46875,-0.0138835256032216,474.068505563755
9.47265625,-0.0161791259144018,474.069877215584
9.4765625,-0.0157758048621854,474.067820027768
9.48046875,-0.0149155736632786,474.067863050395
9.484375,-0.0162201305117959,474.068870736323
9.48828125,-0.0187754870890913,474.066167893774
9.4921875,-0.0189210252583842,474.070494491984
9.49609375,-0.0153165272643515,474.067361423782
9.5,-0.0104266192802967,474.065787369017
9.50390625,-0.0074806143048614,474.066921488394
9.5078125,-0.00822990649085041,474.065354548281
9.51171875,-0.0124531779116626,474.064342489065
9.515625,-0.018545633956226,474.067906057992
9.51953125,-0.0249096210711301,474.067015006088
9.5234375,-0.0306912474210287,474.071573915697
9.52734375,-0.0355443084993403,474.066410333466
9.53125,-0.0392424020070334,474.068426372138
9.53515625,-0.0418938285286574,474.068447836452
9.5390625,-0.0442790075381061,474.069589917286
9.54296875,-0.0470466132097776,474.067908981811
9.546875,-0.0495366526146798,474.067655432368
9.55078125,-0.0502744663453048,474.069653097435
9.5546875,-0.0486970958522735,474.067675307789
9.55859375,-0.045561341027444,474.069224824241
9.5625,-0.0419884834231865,474.069112976257
9.56640625,-0.038754800483275,474.066169550378
9.5703125,-0.0360673306372917,474.066139944332
9.57421875,-0.034023215279765,474.067097346658
9.578125,-0.0328174799956012,474.067749734348
9.58203125,-0.0318303822829509,474.069014990135
9.5859375,-0.0296948861142738,474.068690215946
9.58984375,-0.0258682026965989,474.068163160038
9.59375,-0.0215685565971734,474.071014304807
9.59765625,-0.0190474714400818,474.069372692742
9.6015625,-0.0192653095175079,474.066664550956
9.60546875,-0.0203979710014296,474.069713806594
9.609375,-0.0198294313086328,474.067462110711
9.61328125,-0.0167958297084399,474.069365148217
9.6171875,-0.0122187318977432,474.067601147176
9.62109375,-0.0073965120658506,474.067582376907
9.625,-0.00356659202406945,474.068434947826
9.62890625,-0.00221081642181427,474.071379547548
9.6328125,-0.00507342072030552,474.066837188741
9.63671875,-0.0118594081026753,474.06914417806
9.640625,-0.0172285869194816,474.064958354998
9.64453125,-0.0127282567714263,474.066235700837
9.6484375,0.00667530197336926,474.069503256471
9.65234375,0.0388962362570284,474.068459166103
9.65625,0.0776898825671595,474.070089259657
9.66015625,0.118051804155091,474.069784210873
9.6640625,0.157226761202742,474.066675127263
9.66796875,0.189874330058064,474.068213632398
9.671875,0.204831248964075,474.069450090014
9.67578125,0.191045756442836,474.067958910995
9.6796875,0.148412880641537,474.071867958724
9.68359375,0.0917838905583089,474.070921363213
9.6875,0.0423429535980785,474.0681821731
9.69140625,0.0133122558611484,474.068223490253
9.6953125,0.00371578600736358,474.069259034651
9.69921875,0.00410785825256748,474.069958333039
9.703125,0.00552588945391912,474.069482494658
9.70703125,0.00419691425647351,474.069170833789
9.7109375,0.00100793460379379,474.069430119977
9.71484375,-0.00198740655898473,474.070529490005
9.71875,-0.00434679781347466,474.069754419707
9.72265625,-0.00741666322677138,474.070579179497
9.7265625,-0.0123291550767374,474.070898410563
9.73046875,-0.0176627738391924,474.070899971831
9.734375,-0.0199641763251788,474.070441486498
9.73828125,-0.0175642677380362,474.068822643284
9.7421875,-0.0134784494232098,474.070501868507
9.74609375,-0.0126005271269701,474.072187156495
9.75,-0.0156343290028669,474.07058879706
9.75390625,-0.0188932427771372,474.070180536484
9.7578125,-0.0197563395959499,474.071035002538
9.76171875,-0.0185598561180836,474.069117698535
9.765625,-0.0164760872396036,474.069553686805
9.76953125,-0.0144885272223639,474.071459712717
9.7734375,-0.0131501431861826,474.070121277415
9.77734375,-0.0119952784699001,474.070850891434
9.78125,-0.0102945218905015,474.071563606625
9.78515625,-0.00858246797062056,474.073122962772
9.7890625,-0.00814066797370536,474.071209309333
9.79296875,-0.00942769140102641,474.072258697479
9.796875,-0.0118416254913689,474.07091458576
9.80078125,-0.014172404633621,474.069610297247
9.8046875,-0.015214779263822,474.073383211971
9.80859375,-0.0146476379728158,474.070177250568
9.8125,-0.0132358408253708,474.069747620901
9.81640625,-0.0117086994256147,474.071172949256
9.8203125,-0.0096651474981865,474.070903073649
9.82421875,-0.00622009605855179,474.071803659272
9.828125,-0.00137449892423882,474.072124482254
9.83203125,0.00364779002802984,474.0680593961
9.8359375,0.00719943144260206,474.072652412229
9.83984375,0.00854635630928692,474.069349888398
9.84375,0.00841086679971741,474.071532542116
9.84765625,0.00836915276462676,474.072356908372
9.8515625,0.0103294959834114,474.073702148327
9.85546875,0.0152308109676732,474.072000519083
9.859375,0.0212615463260224,474.072708567595
9.86328125,0.0254912336249187,474.07441975001
9.8671875,0.0277135193868358,474.072721772746
9.87109375,0.0304358755103716,474.073701771905
9.875,0.035109522521819,474.071001852697
9.87890625,0.0403765695609353,474.072779134422
9.8828125,0.0440355471115681,474.073421089122
9.88671875,0.0454143808114382,474.072401054296
9.890625,0.0452092021329789,474.07162596407
9.89453125,0.0434467205900386,474.073748070904
9.8984375,0.0392590744669874,474.077720090184
9.90234375,0.0326770203807636,474.071616693076
9.90625,0.0254965473008141,474.075543841785
9.91015625,0.0206805874839607,474.073947200157
9.9140625,0.0196583264123633,474.074458004959
9.91796875,0.0198452820945089,474.075650134104
9.921875,0.0177714447107397,474.073361333858
9.92578125,0.0137714859879214,474.072634353736
9.9296875,0.0108642184361985,474.074334921178
9.93359375,0.0105862074464728,474.075637771578
9.9375,0.011182002489704,474.075803584033
9.94140625,0.00956907576512014,474.075447589693
9.9453125,0.00510815219130726,474.076085609655
9.94921875,0.000436464903398738,474.074666146938
9.953125,-0.00159333303603815,474.076576179832
9.95703125,-0.00107123805305972,474.074529039177
9.9609375,-0.00072048197101766,474.075148001123
9.96484375,-0.00204781544405755,474.073585944202
9.96875,-0.00357316369965253,474.074838228188
9.97265625,-0.0037673275992026,474.074996374667
9.9765625,-0.00301537036383033,474.076081708724
9.98046875,-0.00222153690157661,474.075593448002
9.984375,-0.0018903710153578,474.076701615548
9.98828125,-0.00245314269543444,474.080244040669
9.9921875,-0.00384484278219153,474.078325275504
9.99609375,-0.00536184700696215,474.075965410317
10,-0.00681488042080934,474.079514627018
10.00390625,-0.0083706505800855,474.079490332418
